218961.0,327378.0,162879.0,277243.0
218823.0,327128.0,162367.0,276762.0
218674.0,326839.0,161865.0,276273.0
218504.0,326516.0,161319.0,275803.0
218345.0,326172.0,160763.0,275151.0
218162.0,325837.0,160274.0,274620.0
217992.0,325440.0,159994.0,274271.0
217795.0,325043.0,159795.0,273944.0
217603.0,324685.0,159592.0,273655.0
217400.0,324181.0,159513.0,273511.0
217188.0,323773.0,159611.0,273598.0
216966.0,323324.0,159818.0,273858.0
216769.0,322900.0,160124.0,274115.0
216542.0,322534.0,160158.0,274119.0
216344.0,322140.0,160111.0,273964.0
216170.0,321770.0,159967.0,273782.0
216026.0,321487.0,159932.0,273584.0
215872.0,321264.0,159992.0,273603.0
215776.0,321093.0,160168.0,273725.0
215668.0,320958.0,160404.0,273971.0
215622.0,320867.0,160686.0,274243.0
215534.0,320730.0,160993.0,274506.0
215447.0,320661.0,161281.0,274784.0
215377.0,320622.0,161576.0,275079.0
215272.0,320474.0,161812.0,275283.0
215180.0,320358.0,162043.0,275492.0
215066.0,320164.0,162239.0,275674.0
214901.0,319909.0,162281.0,275710.0
214684.0,319593.0,162168.0,275511.0
214395.0,319098.0,161988.0,275237.0
214064.0,318535.0,161715.0,274898.0
213651.0,317867.0,161353.0,274411.0
213226.0,317154.0,161043.0,273979.0
212783.0,316445.0,160861.0,273646.0
212321.0,315715.0,160764.0,273456.0
211862.0,314952.0,160653.0,273307.0
211335.0,314177.0,160578.0,273147.0
210889.0,313389.0,160592.0,273131.0
210334.0,312550.0,160764.0,273270.0
209777.0,311782.0,161245.0,273745.0
209256.0,310964.0,161818.0,274404.0
208739.0,310150.0,162310.0,275042.0
208179.0,309357.0,162694.0,275414.0
207560.0,308519.0,163003.0,275780.0
206974.0,307674.0,163365.0,276255.0
206363.0,306886.0,163724.0,276627.0
205734.0,306069.0,164055.0,276983.0
205152.0,305225.0,164311.0,277254.0
204591.0,304460.0,164574.0,277605.0
204034.0,303675.0,164722.0,277736.0
203512.0,302906.0,164802.0,277845.0
202990.0,302221.0,164893.0,277925.0
202509.0,301525.0,164992.0,278032.0
202040.0,300828.0,165099.0,278143.0
201604.0,300189.0,165224.0,278261.0
201168.0,299563.0,165306.0,278395.0
200749.0,298981.0,165395.0,278461.0
200407.0,298396.0,165445.0,278472.0
200040.0,297871.0,165436.0,278535.0
199658.0,297301.0,165473.0,278491.0
199316.0,296752.0,165441.0,278472.0
198955.0,296263.0,165413.0,278436.0
198607.0,295754.0,165401.0,278437.0
198314.0,295240.0,165428.0,278443.0
197997.0,294794.0,165413.0,278416.0
197702.0,294318.0,165434.0,278408.0
197398.0,293888.0,165409.0,278479.0
197113.0,293440.0,165450.0,278411.0
196863.0,293000.0,165437.0,278408.0
196627.0,292600.0,165414.0,278418.0
196370.0,292202.0,165417.0,278414.0
196147.0,291809.0,165441.0,278430.0
195932.0,291410.0,165498.0,278450.0
195702.0,291088.0,165517.0,278521.0
195435.0,290647.0,165543.0,278539.0
195252.0,290316.0,165566.0,278586.0
195042.0,289990.0,165646.0,278615.0
194812.0,289660.0,165668.0,278683.0
194666.0,289358.0,165668.0,278755.0
194436.0,288991.0,165682.0,278697.0
194278.0,288664.0,165642.0,278715.0
194138.0,288361.0,165614.0,278660.0
193910.0,288024.0,165624.0,278647.0
193767.0,287738.0,165633.0,278660.0
193614.0,287426.0,165666.0,278672.0
193441.0,287175.0,165670.0,278710.0
193286.0,286947.0,165660.0,278682.0
193160.0,286718.0,165684.0,278695.0
193027.0,286437.0,165680.0,278702.0
192883.0,286200.0,165698.0,278721.0
192748.0,285973.0,165746.0,278765.0
192616.0,285759.0,165806.0,278838.0
192489.0,285515.0,165795.0,278913.0
192348.0,285283.0,165841.0,278922.0
192264.0,285002.0,165854.0,278910.0
192107.0,284794.0,165883.0,278949.0
192021.0,284592.0,165954.0,279015.0
191917.0,284364.0,165979.0,279060.0
191777.0,284195.0,165964.0,279042.0
191721.0,283991.0,165963.0,279065.0
191633.0,283804.0,165983.0,279038.0
191541.0,283620.0,165970.0,279080.0
191414.0,283423.0,165967.0,279046.0
191335.0,283258.0,165967.0,279070.0
191278.0,283018.0,165971.0,279064.0
191191.0,282869.0,165969.0,279029.0
191104.0,282671.0,165955.0,279025.0
191032.0,282559.0,165912.0,279004.0
190942.0,282381.0,165881.0,279019.0
190866.0,282191.0,165911.0,279004.0
190794.0,282060.0,165877.0,278998.0
190742.0,281898.0,165837.0,278905.0
190685.0,281770.0,165814.0,278863.0
190599.0,281635.0,165781.0,278846.0
190529.0,281484.0,165807.0,278866.0
190504.0,281357.0,165788.0,278861.0
190415.0,281251.0,165799.0,278891.0
190388.0,281135.0,165750.0,278841.0
190336.0,281020.0,165730.0,278806.0
190299.0,280949.0,165683.0,278752.0
190265.0,280824.0,165673.0,278740.0
190203.0,280702.0,165661.0,278716.0
190138.0,280560.0,165640.0,278709.0
190074.0,280444.0,165640.0,278722.0
190031.0,280317.0,165646.0,278712.0
189982.0,280216.0,165645.0,278735.0
189939.0,280045.0,165593.0,278691.0
189896.0,280001.0,165571.0,278668.0
189845.0,279872.0,165533.0,278557.0
189835.0,279759.0,165520.0,278557.0
189787.0,279591.0,165487.0,278578.0
189716.0,279480.0,165476.0,278513.0
189595.0,279337.0,165464.0,278491.0
189592.0,279160.0,165533.0,278584.0
189494.0,278974.0,165597.0,278654.0
189407.0,278829.0,165637.0,278685.0
189362.0,278581.0,165681.0,278706.0
189239.0,278423.0,165664.0,278715.0
189187.0,278193.0,165647.0,278676.0
189064.0,277994.0,165568.0,278642.0
188945.0,277742.0,165523.0,278527.0
188836.0,277450.0,165469.0,278457.0
188716.0,277189.0,165400.0,278366.0
188582.0,276949.0,165382.0,278347.0
188473.0,276663.0,165399.0,278333.0
188324.0,276406.0,165394.0,278304.0
188191.0,276158.0,165380.0,278307.0
188094.0,275948.0,165384.0,278301.0
187900.0,275436.0,165418.0,278281.0
187767.0,275217.0,165445.0,278310.0
187693.0,274967.0,165444.0,278307.0
187514.0,274729.0,165452.0,278318.0
187394.0,274492.0,165496.0,278376.0
187300.0,274286.0,165545.0,278449.0
187198.0,274047.0,165591.0,278521.0
187085.0,273825.0,165645.0,278550.0
186979.0,273588.0,165662.0,278589.0
186881.0,273320.0,165668.0,278608.0
186796.0,273136.0,165657.0,278616.0
186706.0,272929.0,165647.0,278539.0
186629.0,272771.0,165594.0,278559.0
186564.0,272561.0,165603.0,278492.0
186486.0,272393.0,165582.0,278466.0
186396.0,272193.0,165578.0,278424.0
186311.0,272013.0,165513.0,278391.0
186216.0,271856.0,165404.0,278348.0
186157.0,271716.0,165395.0,278242.0
186110.0,271493.0,165310.0,278130.0
186045.0,271388.0,165151.0,277993.0
185975.0,271224.0,165001.0,277794.0
185891.0,271090.0,164886.0,277687.0
185807.0,270844.0,164798.0,277513.0
185736.0,270704.0,164748.0,277428.0
185638.0,270548.0,164756.0,277439.0
185539.0,270376.0,164785.0,277472.0
185468.0,270203.0,164798.0,277479.0
185360.0,269984.0,164844.0,277490.0
185259.0,269858.0,164835.0,277499.0
185233.0,269732.0,164812.0,277485.0
185179.0,269594.0,164794.0,277493.0
185122.0,269483.0,164751.0,277423.0
185032.0,269333.0,164729.0,277448.0
184994.0,269181.0,164733.0,277455.0
184909.0,268999.0,164762.0,277499.0
184818.0,268847.0,164815.0,277539.0
184746.0,268683.0,164799.0,277535.0
184687.0,268580.0,164774.0,277540.0
184623.0,268432.0,164708.0,277516.0
184564.0,268289.0,164678.0,277382.0
184481.0,268191.0,164617.0,277351.0
184442.0,268038.0,164621.0,277359.0
184363.0,267917.0,164637.0,277347.0
184292.0,267770.0,164704.0,277374.0
184251.0,267626.0,164715.0,277411.0
184198.0,267506.0,164756.0,277428.0
184102.0,267313.0,164714.0,277422.0
184072.0,267201.0,164753.0,277456.0
183980.0,267067.0,164761.0,277475.0
183941.0,266893.0,164779.0,277483.0
183854.0,266769.0,164837.0,277575.0
183829.0,266625.0,164902.0,277649.0
183731.0,266534.0,164959.0,277668.0
183721.0,266389.0,164957.0,277703.0
183674.0,266282.0,164943.0,277691.0
183621.0,266213.0,164938.0,277680.0
183578.0,266105.0,164874.0,277652.0
183571.0,265962.0,164844.0,277582.0
183493.0,265885.0,164801.0,277541.0
183443.0,265758.0,164789.0,277510.0
183432.0,265588.0,164775.0,277497.0
183349.0,265494.0,164786.0,277521.0
183320.0,265389.0,164841.0,277554.0
183260.0,265273.0,164838.0,277583.0
183235.0,265190.0,164855.0,277585.0
183184.0,265068.0,164837.0,277560.0
183141.0,264968.0,164821.0,277562.0
183076.0,264866.0,164793.0,277474.0
183053.0,264762.0,164793.0,277481.0
183018.0,264679.0,164768.0,277457.0
182985.0,264576.0,164753.0,277449.0
182956.0,264498.0,164776.0,277492.0
182919.0,264400.0,164785.0,277498.0
182904.0,264329.0,164770.0,277481.0
182845.0,264250.0,164748.0,277459.0
182801.0,264166.0,164711.0,277419.0
182776.0,264088.0,164702.0,277408.0
182772.0,264020.0,164705.0,277411.0
182730.0,263962.0,164642.0,277336.0
182709.0,263858.0,164613.0,277307.0
182668.0,263811.0,164646.0,277347.0
182647.0,263703.0,164676.0,277358.0
182594.0,263623.0,164677.0,277390.0
182556.0,263549.0,164684.0,277393.0
182533.0,263434.0,164702.0,277433.0
182464.0,263345.0,164751.0,277446.0
182434.0,263226.0,164766.0,277473.0
182363.0,263099.0,164790.0,277451.0
182329.0,262915.0,164764.0,277482.0
182198.0,262791.0,164748.0,277444.0
182083.0,262548.0,164696.0,277375.0
181963.0,262315.0,164716.0,277304.0
181797.0,262027.0,164675.0,277273.0
181669.0,261728.0,164690.0,277253.0
181513.0,261456.0,164663.0,277269.0
181347.0,261200.0,164652.0,277212.0
181203.0,260887.0,164651.0,277170.0
181039.0,260621.0,164580.0,277114.0
180894.0,260354.0,164582.0,277079.0
180751.0,260103.0,164554.0,277052.0
180601.0,259857.0,164559.0,277036.0
180499.0,259589.0,164582.0,277022.0
180357.0,259340.0,164545.0,276983.0
180232.0,259124.0,164549.0,276992.0
180118.0,258952.0,164534.0,277013.0
180030.0,258774.0,164555.0,276970.0
179948.0,258575.0,164519.0,276979.0
179853.0,258434.0,164493.0,276913.0
179772.0,258247.0,164493.0,276919.0
179687.0,258142.0,164466.0,276890.0
179603.0,258079.0,164469.0,276916.0
179533.0,257932.0,164484.0,276886.0
179430.0,257780.0,164436.0,276879.0
179324.0,257611.0,164393.0,276798.0
179249.0,257450.0,164369.0,276728.0
179145.0,257282.0,164373.0,276766.0
179078.0,257163.0,164304.0,276727.0
179040.0,256991.0,164311.0,276675.0
178933.0,256888.0,164284.0,276716.0
178877.0,256707.0,164285.0,276631.0
178802.0,256628.0,164274.0,276644.0
178744.0,256457.0,164264.0,276628.0
178651.0,256325.0,164258.0,276594.0
178581.0,256205.0,164223.0,276553.0
178530.0,256048.0,164196.0,276528.0
178416.0,255911.0,164192.0,276489.0
178337.0,255798.0,164170.0,276475.0
178295.0,255668.0,164151.0,276469.0
178194.0,255565.0,164141.0,276436.0
178149.0,255447.0,164101.0,276441.0
178119.0,255333.0,164097.0,276377.0
178086.0,255257.0,164051.0,276307.0
178006.0,255176.0,164001.0,276252.0
177964.0,255075.0,163971.0,276230.0
177937.0,254999.0,163965.0,276213.0
177880.0,254928.0,164014.0,276225.0
177844.0,254866.0,164030.0,276289.0
177808.0,254767.0,164021.0,276308.0
177745.0,254695.0,164039.0,276264.0
177746.0,254597.0,164010.0,276295.0
177673.0,254535.0,163990.0,276276.0
177621.0,254447.0,163976.0,276230.0
177583.0,254375.0,163918.0,276165.0
177513.0,254283.0,163928.0,276132.0
177486.0,254225.0,163903.0,276141.0
177450.0,254107.0,163927.0,276153.0
177389.0,254042.0,163914.0,276170.0
177346.0,253928.0,163931.0,276157.0
177294.0,253838.0,163957.0,276147.0
177212.0,253769.0,163932.0,276207.0
177201.0,253636.0,163981.0,276238.0
177139.0,253540.0,163999.0,276271.0
177058.0,253384.0,164077.0,276301.0
176989.0,253288.0,164110.0,276438.0
176928.0,253143.0,164183.0,276488.0
176847.0,252985.0,164236.0,276541.0
176787.0,252875.0,164257.0,276590.0
176726.0,252760.0,164314.0,276657.0
176689.0,252674.0,164313.0,276651.0
176639.0,252583.0,164299.0,276633.0
176588.0,252523.0,164272.0,276574.0
176596.0,252474.0,164237.0,276511.0
176561.0,252423.0,164160.0,276454.0
176552.0,252470.0,164135.0,276407.0
176569.0,252429.0,164076.0,276356.0
176568.0,252492.0,163982.0,276242.0
176586.0,252456.0,163919.0,276158.0
176594.0,252463.0,163897.0,276169.0
176588.0,252474.0,163889.0,276118.0
176590.0,252388.0,163897.0,276122.0
176544.0,252394.0,163873.0,276075.0
176488.0,252287.0,163886.0,276084.0
176456.0,252257.0,163907.0,276149.0
176426.0,252156.0,163922.0,276193.0
176407.0,252077.0,163959.0,276223.0
176371.0,252051.0,163972.0,276213.0
176346.0,252019.0,163977.0,276234.0
176312.0,251971.0,163954.0,276214.0
176332.0,251909.0,163965.0,276203.0
176305.0,251867.0,163908.0,276179.0
176273.0,251848.0,163889.0,276171.0
176308.0,251819.0,163879.0,276127.0
176271.0,251771.0,163879.0,276129.0
176212.0,251686.0,163866.0,276140.0
176166.0,251647.0,163894.0,276152.0
176374.0,251574.0,163888.0,276149.0
176263.0,251412.0,163912.0,276142.0
176193.0,251312.0,163930.0,276148.0
176133.0,251132.0,163940.0,276161.0
176018.0,250923.0,163972.0,276121.0
175891.0,250698.0,163941.0,276103.0
175746.0,250436.0,163913.0,276078.0
175628.0,250167.0,163941.0,276049.0
175463.0,249923.0,163899.0,276031.0
175337.0,249632.0,163874.0,275969.0
175205.0,249456.0,163881.0,275913.0
175030.0,249229.0,163846.0,275936.0
174923.0,248978.0,163848.0,275882.0
174788.0,248766.0,163854.0,275900.0
174663.0,248584.0,163837.0,275885.0
174545.0,248371.0,163863.0,275870.0
174437.0,248191.0,163815.0,275823.0
174330.0,248020.0,163799.0,275777.0
174217.0,247832.0,163749.0,275790.0
174147.0,247676.0,163794.0,275748.0
174024.0,247503.0,163764.0,275762.0
173937.0,247336.0,163778.0,275748.0
173872.0,247219.0,163795.0,275790.0
173793.0,247077.0,163799.0,275750.0
173706.0,246903.0,163772.0,275707.0
173653.0,246779.0,163752.0,275689.0
173554.0,246668.0,163752.0,275716.0
173481.0,246525.0,163766.0,275679.0
173391.0,246412.0,163734.0,275730.0
173367.0,246272.0,163774.0,275699.0
173280.0,246158.0,163777.0,275679.0
173229.0,246052.0,163750.0,275678.0
173151.0,245973.0,163769.0,275665.0
173075.0,245848.0,163743.0,275689.0
173039.0,245726.0,163726.0,275656.0
172992.0,245645.0,163765.0,275663.0
172927.0,245530.0,163715.0,275645.0
172855.0,245421.0,163728.0,275646.0
172800.0,245340.0,163735.0,275651.0
172758.0,245225.0,163736.0,275627.0
172695.0,245125.0,163738.0,275632.0
172613.0,245011.0,163724.0,275604.0
172601.0,244904.0,163711.0,275648.0
172536.0,244841.0,163732.0,275656.0
172495.0,244750.0,163724.0,275634.0
172447.0,244680.0,163727.0,275630.0
172425.0,244621.0,163709.0,275606.0
172366.0,244586.0,163713.0,275606.0
172345.0,244505.0,163722.0,275595.0
172328.0,244455.0,163746.0,275574.0
172328.0,244408.0,163689.0,275619.0
172307.0,244367.0,163717.0,275580.0
172264.0,244359.0,163766.0,275602.0
172246.0,244289.0,163717.0,275557.0
172225.0,244229.0,163702.0,275546.0
172178.0,244182.0,163665.0,275559.0
172171.0,244134.0,163636.0,275546.0
172112.0,244103.0,163652.0,275568.0
172108.0,244074.0,163627.0,275559.0
172067.0,243980.0,163634.0,275535.0
172038.0,243975.0,163647.0,275548.0
172056.0,243901.0,163639.0,275505.0
172003.0,243843.0,163622.0,275506.0
171993.0,243834.0,163618.0,275520.0
171977.0,243765.0,163653.0,275510.0
171920.0,243713.0,163652.0,275514.0
171930.0,243692.0,163619.0,275538.0
171898.0,243652.0,163635.0,275491.0
171896.0,243563.0,163619.0,275553.0
171839.0,243550.0,163630.0,275533.0
171832.0,243515.0,163662.0,275545.0
171807.0,243477.0,163660.0,275556.0
171806.0,243439.0,163636.0,275532.0
171767.0,243389.0,163603.0,275495.0
171767.0,243346.0,163608.0,275535.0
171741.0,243303.0,163607.0,275490.0
171695.0,243259.0,163569.0,275486.0
171683.0,243243.0,163584.0,275486.0
171635.0,243181.0,163620.0,275556.0
171623.0,243169.0,163686.0,275583.0
171627.0,243113.0,163709.0,275627.0
171585.0,243055.0,163752.0,275665.0
171588.0,243015.0,163719.0,275682.0
171530.0,242960.0,163742.0,275672.0
171516.0,242905.0,163744.0,275694.0
171469.0,242841.0,163731.0,275620.0
171491.0,242870.0,163741.0,275685.0
171488.0,242880.0,163744.0,275618.0
171458.0,242814.0,163692.0,275664.0
171427.0,242798.0,163724.0,275642.0
171437.0,242757.0,163692.0,275657.0
171434.0,242749.0,163708.0,275648.0
171421.0,242789.0,163710.0,275675.0
171437.0,242743.0,163739.0,275650.0
171426.0,242757.0,163712.0,275676.0
171430.0,242711.0,163701.0,275681.0
171441.0,242693.0,163683.0,275640.0
171416.0,242700.0,163690.0,275622.0
171407.0,242673.0,163685.0,275662.0
171396.0,242625.0,163726.0,275706.0
171379.0,242609.0,163726.0,275737.0
171369.0,242529.0,163759.0,275760.0
171311.0,242495.0,163777.0,275681.0
171263.0,242406.0,163759.0,275694.0
171248.0,242284.0,163729.0,275643.0
171121.0,242143.0,163680.0,275622.0
171013.0,241964.0,163665.0,275584.0
170908.0,241740.0,163691.0,275539.0
170782.0,241660.0,163684.0,275497.0
170645.0,241429.0,163684.0,275507.0
170513.0,241199.0,163678.0,275470.0
170346.0,241004.0,163656.0,275421.0
170261.0,240824.0,163608.0,275366.0
170139.0,240656.0,163589.0,275352.0
170017.0,240465.0,163554.0,275291.0
169953.0,240288.0,163565.0,275272.0
169842.0,240194.0,163546.0,275251.0
169730.0,240013.0,163527.0,275232.0
169659.0,239870.0,163522.0,275171.0
169558.0,239743.0,163474.0,275094.0
169489.0,239624.0,163444.0,275103.0
169397.0,239487.0,163411.0,275071.0
169338.0,239373.0,163401.0,275033.0
169259.0,239299.0,163386.0,275002.0
169174.0,239174.0,163359.0,274989.0
169113.0,239057.0,163340.0,274971.0
169057.0,238961.0,163329.0,274961.0
168981.0,238854.0,163375.0,274948.0
168944.0,238794.0,163375.0,274977.0
168864.0,238709.0,163346.0,275023.0
168819.0,238612.0,163366.0,274943.0
168759.0,238503.0,163326.0,274915.0
168720.0,238455.0,163329.0,274882.0
168680.0,238366.0,163307.0,274919.0
168614.0,238261.0,163314.0,274901.0
168561.0,238177.0,163260.0,274861.0
168546.0,238083.0,163265.0,274825.0
168424.0,238050.0,163283.0,274881.0
168423.0,237987.0,163264.0,274797.0
168379.0,237915.0,163238.0,274765.0
168329.0,237860.0,163244.0,274793.0
168319.0,237797.0,163199.0,274750.0
168266.0,237723.0,163175.0,274708.0
168240.0,237724.0,163140.0,274686.0
168199.0,237641.0,163124.0,274671.0
168166.0,237557.0,163119.0,274661.0
168138.0,237522.0,163099.0,274642.0
168067.0,237455.0,163105.0,274648.0
168056.0,237410.0,163093.0,274606.0
168058.0,237374.0,163102.0,274605.0
168024.0,237376.0,163099.0,274663.0
167983.0,237342.0,163089.0,274605.0
167967.0,237298.0,163082.0,274574.0
167935.0,237249.0,163044.0,274479.0
167924.0,237219.0,163018.0,274550.0
167903.0,237178.0,163038.0,274595.0
167874.0,237156.0,163019.0,274568.0
167840.0,237149.0,163025.0,274553.0
167830.0,237067.0,163013.0,274548.0
167792.0,237029.0,162968.0,274513.0
167784.0,237007.0,162932.0,274466.0
167768.0,236985.0,162921.0,274456.0
167760.0,236982.0,162911.0,274449.0
167757.0,237001.0,162889.0,274436.0
167755.0,236967.0,162881.0,274416.0
167757.0,236966.0,162903.0,274431.0
167732.0,236937.0,162893.0,274444.0
167716.0,236964.0,162874.0,274424.0
167737.0,236914.0,162884.0,274441.0
167691.0,236904.0,162914.0,274401.0
