174072.0,249958.0,139413.0,249593.0
173806.0,249593.0,139525.0,249556.0
173597.0,249274.0,139648.0,249549.0
173372.0,248927.0,139766.0,249448.0
173155.0,248644.0,139843.0,249435.0
172971.0,248388.0,139908.0,249518.0
172772.0,248069.0,139887.0,249587.0
172579.0,247811.0,139916.0,249715.0
172408.0,247540.0,139871.0,249732.0
172232.0,247310.0,139860.0,249878.0
172122.0,247133.0,139816.0,249931.0
171992.0,246939.0,139824.0,250060.0
171886.0,246799.0,139816.0,250077.0
171791.0,246642.0,139799.0,250104.0
171717.0,246564.0,139759.0,250078.0
171629.0,246415.0,139730.0,250036.0
171547.0,246314.0,139690.0,250098.0
171497.0,246217.0,139671.0,250136.0
171445.0,246098.0,139658.0,250151.0
171385.0,245984.0,139685.0,250235.0
171275.0,245868.0,139725.0,250269.0
171212.0,245757.0,139729.0,250269.0
171148.0,245679.0,139749.0,250186.0
171098.0,245580.0,139814.0,250194.0
171040.0,245522.0,139913.0,250250.0
171006.0,245452.0,139985.0,250320.0
170959.0,245466.0,140028.0,250431.0
170938.0,245404.0,140031.0,250403.0
170890.0,245357.0,140031.0,250412.0
170898.0,245332.0,140068.0,250393.0
170892.0,245273.0,140082.0,250428.0
170823.0,245259.0,140123.0,250468.0
170860.0,245261.0,140245.0,250516.0
170859.0,245253.0,140277.0,250538.0
170828.0,245247.0,140323.0,250532.0
170834.0,245188.0,140336.0,250526.0
170796.0,245191.0,140375.0,250602.0
170783.0,245199.0,140400.0,250638.0
170793.0,245164.0,140417.0,250572.0
170781.0,245184.0,140352.0,250576.0
170788.0,245169.0,140298.0,250559.0
170793.0,245197.0,140299.0,250536.0
170791.0,245179.0,140306.0,250560.0
170777.0,245146.0,140333.0,250631.0
170783.0,245149.0,140337.0,250631.0
170757.0,245047.0,140403.0,250767.0
170729.0,245005.0,140413.0,250791.0
170680.0,244915.0,140472.0,250862.0
170634.0,244839.0,140481.0,250915.0
170598.0,244745.0,140465.0,250873.0
170502.0,244655.0,140428.0,250859.0
170450.0,244562.0,140485.0,250936.0
170407.0,244425.0,140495.0,250937.0
170307.0,244318.0,140499.0,251003.0
170258.0,244227.0,140483.0,250991.0
170217.0,244119.0,140472.0,250991.0
170137.0,244106.0,140461.0,250968.0
170133.0,244005.0,140470.0,250933.0
170058.0,243891.0,140462.0,250919.0
170005.0,243793.0,140422.0,250926.0
169919.0,243767.0,140413.0,250933.0
169897.0,243731.0,140402.0,250990.0
169866.0,243650.0,140415.0,251026.0
169822.0,243572.0,140433.0,251109.0
169784.0,243539.0,140442.0,251116.0
169731.0,243541.0,140422.0,251203.0
169723.0,243427.0,140462.0,251255.0
169666.0,243398.0,140521.0,251329.0
169673.0,243355.0,140552.0,251413.0
169623.0,243329.0,140585.0,251437.0
169562.0,243255.0,140625.0,251446.0
169537.0,243208.0,140640.0,251517.0
169517.0,243204.0,140661.0,251578.0
169511.0,243176.0,140694.0,251589.0
169483.0,243135.0,140707.0,251577.0
169473.0,243115.0,140716.0,251637.0
169419.0,243116.0,140762.0,251690.0
169400.0,243060.0,140803.0,251739.0
169398.0,243050.0,140781.0,251752.0
169355.0,243022.0,140803.0,251730.0
169355.0,242994.0,140824.0,251733.0
169353.0,242979.0,140817.0,251792.0
169322.0,242994.0,140818.0,251796.0
169336.0,242978.0,140771.0,251724.0
169330.0,242945.0,140766.0,251705.0
169348.0,242987.0,140755.0,251748.0
169309.0,242977.0,140759.0,251734.0
169335.0,242999.0,140796.0,251860.0
169341.0,243012.0,140859.0,251953.0
169350.0,243060.0,140896.0,252037.0
169346.0,243093.0,140905.0,252112.0
169405.0,243090.0,140975.0,252188.0
169422.0,243119.0,140968.0,252249.0
169429.0,243168.0,140952.0,252258.0
169454.0,243201.0,140924.0,252281.0
169471.0,243215.0,140893.0,252283.0
169502.0,243256.0,140862.0,252284.0
169471.0,243262.0,140847.0,252312.0
169510.0,243292.0,140849.0,252333.0
169533.0,243347.0,140854.0,252342.0
169534.0,243369.0,140826.0,252354.0
169549.0,243407.0,140862.0,252411.0
169571.0,243414.0,140882.0,252411.0
169586.0,243440.0,140882.0,252440.0
169598.0,243512.0,140849.0,252460.0
169589.0,243538.0,140851.0,252460.0
169641.0,243553.0,140861.0,252475.0
169636.0,243594.0,140879.0,252487.0
169667.0,243632.0,140887.0,252501.0
169678.0,243674.0,140882.0,252489.0
169702.0,243669.0,140857.0,252486.0
169720.0,243725.0,140818.0,252444.0
169712.0,243770.0,140776.0,252466.0
169738.0,243801.0,140773.0,252417.0
169770.0,243790.0,140739.0,252434.0
169752.0,243882.0,140708.0,252438.0
169813.0,243922.0,140724.0,252508.0
169807.0,243958.0,140671.0,252495.0
169828.0,244001.0,140630.0,252516.0
169836.0,244029.0,140596.0,252497.0
169856.0,244046.0,140556.0,252463.0
169867.0,244069.0,140506.0,252434.0
169855.0,244137.0,140456.0,252426.0
169888.0,244152.0,140468.0,252446.0
169916.0,244238.0,140491.0,252464.0
169949.0,244247.0,140499.0,252441.0
169980.0,244291.0,140485.0,252461.0
170002.0,244342.0,140453.0,252448.0
170009.0,244381.0,140476.0,252515.0
170079.0,244447.0,140466.0,252548.0
170106.0,244500.0,140476.0,252569.0
170137.0,244541.0,140485.0,252559.0
170182.0,244683.0,140468.0,252555.0
170210.0,244718.0,140521.0,252638.0
170262.0,244766.0,140581.0,252775.0
170323.0,244873.0,140638.0,252799.0
170362.0,244930.0,140631.0,252849.0
170410.0,245035.0,140653.0,252930.0
170446.0,245072.0,140712.0,253031.0
170486.0,245146.0,140752.0,253116.0
170539.0,245228.0,140775.0,253211.0
170591.0,245261.0,140796.0,253281.0
170656.0,245324.0,140816.0,253287.0
170703.0,245398.0,140882.0,253372.0
170714.0,245442.0,140952.0,253490.0
170721.0,245452.0,141045.0,253613.0
170759.0,245471.0,141047.0,253622.0
170736.0,245416.0,141092.0,253713.0
170714.0,245399.0,141109.0,253706.0
170650.0,245319.0,141106.0,253766.0
170651.0,245206.0,141161.0,253784.0
170575.0,245151.0,141152.0,253754.0
170523.0,245040.0,141130.0,253768.0
170471.0,244932.0,141111.0,253707.0
170421.0,244880.0,141077.0,253643.0
170349.0,244795.0,141031.0,253623.0
170300.0,244735.0,140970.0,253597.0
170289.0,244658.0,140948.0,253573.0
170227.0,244624.0,140946.0,253553.0
170167.0,244527.0,140900.0,253559.0
170165.0,244468.0,140875.0,253529.0
170134.0,244422.0,140848.0,253523.0
170098.0,244384.0,140796.0,253453.0
170068.0,244407.0,140742.0,253421.0
170050.0,244336.0,140717.0,253362.0
170015.0,244285.0,140636.0,253301.0
169984.0,244261.0,140614.0,253246.0
169935.0,244240.0,140578.0,253206.0
169975.0,244216.0,140568.0,253219.0
169936.0,244205.0,140567.0,253237.0
169896.0,244155.0,140564.0,253245.0
169901.0,244143.0,140568.0,253229.0
169885.0,244140.0,140606.0,253249.0
169896.0,244114.0,140640.0,253274.0
169875.0,244085.0,140638.0,253272.0
169855.0,244063.0,140633.0,253242.0
169848.0,244047.0,140616.0,253265.0
169825.0,243975.0,140626.0,253267.0
169797.0,243966.0,140617.0,253271.0
169787.0,243933.0,140643.0,253267.0
169774.0,243927.0,140632.0,253268.0
169761.0,243903.0,140635.0,253257.0
169722.0,243850.0,140618.0,253222.0
169712.0,243806.0,140606.0,253161.0
169682.0,243805.0,140600.0,253242.0
169686.0,243770.0,140623.0,253214.0
169678.0,243762.0,140658.0,253231.0
169653.0,243758.0,140682.0,253262.0
169629.0,243735.0,140685.0,253264.0
169628.0,243708.0,140711.0,253280.0
169644.0,243732.0,140719.0,253266.0
169643.0,243735.0,140721.0,253268.0
169629.0,243696.0,140726.0,253274.0
169599.0,243703.0,140718.0,253271.0
169667.0,243720.0,140760.0,253304.0
169686.0,243729.0,140761.0,253344.0
169676.0,243775.0,140798.0,253408.0
169693.0,243842.0,140859.0,253446.0
169738.0,243883.0,140924.0,253556.0
169804.0,243903.0,141040.0,253667.0
169839.0,243976.0,141155.0,253835.0
169891.0,244046.0,141269.0,254054.0
169937.0,244101.0,141393.0,254157.0
169966.0,244151.0,141449.0,254283.0
169999.0,244217.0,141503.0,254406.0
170016.0,244235.0,141570.0,254527.0
170054.0,244274.0,141625.0,254637.0
170064.0,244272.0,141661.0,254686.0
170082.0,244311.0,141680.0,254690.0
170110.0,244355.0,141682.0,254711.0
170117.0,244372.0,141673.0,254711.0
170118.0,244356.0,141706.0,254762.0
170130.0,244358.0,141678.0,254794.0
170142.0,244395.0,141677.0,254776.0
170155.0,244378.0,141648.0,254794.0
170146.0,244408.0,141644.0,254772.0
170174.0,244399.0,141606.0,254768.0
170195.0,244436.0,141605.0,254762.0
170187.0,244442.0,141613.0,254781.0
170216.0,244480.0,141597.0,254764.0
170224.0,244484.0,141544.0,254763.0
170246.0,244506.0,141558.0,254798.0
170270.0,244550.0,141559.0,254840.0
170271.0,244603.0,141570.0,254842.0
170336.0,244648.0,141553.0,254868.0
170347.0,244663.0,141573.0,254932.0
170393.0,244760.0,141610.0,254991.0
170422.0,244817.0,141641.0,255020.0
170497.0,244868.0,141659.0,255068.0
170539.0,244856.0,141682.0,255120.0
170553.0,244910.0,141702.0,255144.0
170576.0,244974.0,141763.0,255203.0
170609.0,245032.0,141821.0,255289.0
170662.0,245082.0,141850.0,255298.0
170702.0,245163.0,141845.0,255371.0
170746.0,245205.0,141918.0,255421.0
170807.0,245313.0,141909.0,255469.0
170871.0,245384.0,141891.0,255527.0
170912.0,245454.0,141883.0,255500.0
170943.0,245507.0,141837.0,255517.0
170979.0,245582.0,141806.0,255488.0
171028.0,245617.0,141800.0,255453.0
171031.0,245655.0,141779.0,255493.0
171044.0,245720.0,141770.0,255509.0
171096.0,245684.0,141826.0,255569.0
171112.0,245741.0,141809.0,255574.0
171126.0,245790.0,141810.0,255608.0
171129.0,245807.0,141777.0,255638.0
171172.0,245857.0,141788.0,255562.0
171213.0,245914.0,141720.0,255614.0
171255.0,245943.0,141733.0,255573.0
171259.0,245994.0,141706.0,255586.0
171275.0,245990.0,141684.0,255571.0
171273.0,245963.0,141694.0,255578.0
171205.0,245892.0,141662.0,255538.0
171189.0,245795.0,141672.0,255552.0
171147.0,245719.0,141741.0,255555.0
171061.0,245609.0,141704.0,255577.0
171002.0,245535.0,141706.0,255534.0
170932.0,245416.0,141712.0,255511.0
170889.0,245325.0,141679.0,255451.0
170825.0,245244.0,141675.0,255453.0
170770.0,245156.0,141653.0,255415.0
170703.0,245078.0,141661.0,255385.0
170692.0,244998.0,141621.0,255358.0
170646.0,244950.0,141632.0,255356.0
170616.0,244881.0,141620.0,255287.0
170586.0,244839.0,141575.0,255308.0
170547.0,244772.0,141560.0,255253.0
170557.0,244775.0,141548.0,255231.0
170510.0,244741.0,141562.0,255232.0
170488.0,244717.0,141522.0,255186.0
170508.0,244687.0,141522.0,255200.0
170476.0,244695.0,141510.0,255193.0
170462.0,244684.0,141530.0,255242.0
170481.0,244633.0,141523.0,255191.0
170469.0,244644.0,141464.0,255227.0
170461.0,244638.0,141461.0,255183.0
170450.0,244638.0,141449.0,255138.0
170477.0,244662.0,141452.0,255177.0
170495.0,244655.0,141463.0,255163.0
170464.0,244637.0,141458.0,255198.0
170478.0,244632.0,141474.0,255172.0
170436.0,244650.0,141504.0,255183.0
170485.0,244651.0,141540.0,255216.0
170430.0,244637.0,141584.0,255286.0
170513.0,244680.0,141702.0,255368.0
170502.0,244690.0,141764.0,255452.0
170508.0,244718.0,141842.0,255521.0
170520.0,244747.0,141881.0,255558.0
170568.0,244769.0,141931.0,255633.0
170583.0,244807.0,141950.0,255643.0
170589.0,244822.0,141992.0,255695.0
170643.0,244841.0,142044.0,255724.0
170655.0,244941.0,142080.0,255699.0
170697.0,244928.0,142073.0,255720.0
170698.0,244979.0,142028.0,255672.0
170734.0,244971.0,141986.0,255609.0
170740.0,245032.0,141881.0,255525.0
170758.0,245068.0,141801.0,255441.0
170762.0,245039.0,141762.0,255375.0
170750.0,245094.0,141696.0,255312.0
170760.0,245096.0,141617.0,255204.0
170778.0,245084.0,141529.0,255092.0
170780.0,245118.0,141414.0,254986.0
170776.0,245068.0,141351.0,254902.0
170778.0,245121.0,141303.0,254847.0
170786.0,245133.0,141283.0,254840.0
170794.0,245172.0,141260.0,254839.0
170796.0,245142.0,141270.0,254877.0
170836.0,245197.0,141261.0,254848.0
170828.0,245219.0,141268.0,254863.0
170851.0,245245.0,141241.0,254832.0
170853.0,245281.0,141243.0,254829.0
170851.0,245290.0,141225.0,254821.0
170860.0,245257.0,141174.0,254744.0
170859.0,245267.0,141128.0,254716.0
170858.0,245307.0,141065.0,254642.0
170874.0,245282.0,141038.0,254595.0
170862.0,245249.0,141008.0,254570.0
170871.0,245306.0,140991.0,254540.0
170872.0,245309.0,140919.0,254471.0
170864.0,245316.0,140869.0,254399.0
170873.0,245299.0,140820.0,254385.0
170865.0,245275.0,140791.0,254303.0
170867.0,245264.0,140737.0,254281.0
170871.0,245304.0,140726.0,254267.0
170863.0,245264.0,140710.0,254242.0
170870.0,245263.0,140680.0,254216.0
170826.0,245248.0,140612.0,254149.0
170830.0,245222.0,140579.0,254095.0
170832.0,245214.0,140499.0,254040.0
170805.0,245219.0,140449.0,253973.0
170794.0,245212.0,140421.0,253909.0
170801.0,245208.0,140390.0,253928.0
170801.0,245165.0,140380.0,253852.0
170773.0,245156.0,140319.0,253827.0
170794.0,245161.0,140279.0,253701.0
170784.0,245159.0,140241.0,253689.0
170793.0,245142.0,140237.0,253682.0
170817.0,245168.0,140258.0,253683.0
170786.0,245168.0,140278.0,253668.0
170809.0,245163.0,140250.0,253679.0
170824.0,245149.0,140259.0,253644.0
170823.0,245219.0,140279.0,253639.0
170840.0,245228.0,140249.0,253670.0
170866.0,245249.0,140279.0,253701.0
170870.0,245227.0,140291.0,253682.0
170880.0,245271.0,140312.0,253657.0
170873.0,245313.0,140269.0,253648.0
170906.0,245313.0,140308.0,253689.0
170930.0,245357.0,140300.0,253717.0
170925.0,245380.0,140363.0,253753.0
170955.0,245378.0,140349.0,253746.0
170993.0,245429.0,140384.0,253803.0
171000.0,245457.0,140375.0,253782.0
171028.0,245487.0,140366.0,253804.0
171027.0,245501.0,140379.0,253810.0
171042.0,245492.0,140383.0,253780.0
171036.0,245509.0,140397.0,253800.0
171032.0,245501.0,140422.0,253824.0
171034.0,245498.0,140418.0,253784.0
170980.0,245402.0,140381.0,253762.0
170939.0,245314.0,140376.0,253723.0
170886.0,245209.0,140402.0,253685.0
170805.0,245082.0,140354.0,253648.0
170721.0,244949.0,140360.0,253626.0
170666.0,244846.0,140379.0,253605.0
170585.0,244729.0,140345.0,253583.0
170511.0,244608.0,140326.0,253572.0
170448.0,244540.0,140246.0,253484.0
170381.0,244410.0,140219.0,253433.0
170291.0,244306.0,140205.0,253381.0
170243.0,244188.0,140150.0,253316.0
170213.0,244109.0,140122.0,253268.0
170165.0,244040.0,140136.0,253234.0
170103.0,243965.0,140166.0,253221.0
170061.0,243933.0,140166.0,253242.0
170034.0,243887.0,140201.0,253225.0
169989.0,243801.0,140155.0,253243.0
169984.0,243760.0,140154.0,253165.0
169939.0,243705.0,140118.0,253179.0
169893.0,243689.0,140099.0,253122.0
169846.0,243614.0,140060.0,253054.0
169838.0,243562.0,140041.0,253010.0
169792.0,243524.0,139997.0,252943.0
169748.0,243417.0,139901.0,252796.0
169717.0,243376.0,139902.0,252807.0
169691.0,243351.0,139882.0,252759.0
169631.0,243297.0,139869.0,252721.0
169601.0,243221.0,139819.0,252651.0
169572.0,243171.0,139783.0,252607.0
169514.0,243115.0,139746.0,252552.0
169443.0,243027.0,139712.0,252504.0
169432.0,242937.0,139690.0,252449.0
169406.0,242885.0,139667.0,252469.0
169330.0,242836.0,139652.0,252420.0
169305.0,242763.0,139667.0,252452.0
169292.0,242724.0,139649.0,252448.0
169276.0,242671.0,139622.0,252411.0
169237.0,242640.0,139636.0,252440.0
169245.0,242601.0,139607.0,252374.0
169197.0,242578.0,139598.0,252353.0
169189.0,242553.0,139596.0,252290.0
169160.0,242523.0,139592.0,252362.0
169167.0,242501.0,139617.0,252424.0
169157.0,242527.0,139601.0,252429.0
169127.0,242483.0,139612.0,252414.0
169147.0,242486.0,139608.0,252389.0
169147.0,242498.0,139602.0,252394.0
169158.0,242458.0,139618.0,252412.0
169172.0,242479.0,139595.0,252447.0
169170.0,242502.0,139638.0,252438.0
169181.0,242501.0,139595.0,252393.0
169193.0,242493.0,139595.0,252364.0
169188.0,242471.0,139600.0,252378.0
169208.0,242514.0,139613.0,252393.0
169203.0,242509.0,139627.0,252493.0
169233.0,242566.0,139685.0,252478.0
169228.0,242593.0,139659.0,252493.0
169237.0,242577.0,139710.0,252532.0
169253.0,242596.0,139693.0,252529.0
169262.0,242601.0,139713.0,252522.0
169245.0,242588.0,139738.0,252517.0
169264.0,242593.0,139737.0,252525.0
169280.0,242610.0,139723.0,252506.0
169292.0,242631.0,139677.0,252504.0
169311.0,242660.0,139668.0,252490.0
169301.0,242652.0,139609.0,252506.0
169323.0,242668.0,139628.0,252470.0
169304.0,242711.0,139567.0,252428.0
169318.0,242657.0,139549.0,252378.0
169295.0,242676.0,139533.0,252337.0
169305.0,242677.0,139483.0,252315.0
169320.0,242698.0,139467.0,252274.0
169330.0,242676.0,139438.0,252274.0
169344.0,242685.0,139451.0,252293.0
169344.0,242745.0,139445.0,252292.0
169349.0,242727.0,139426.0,252307.0
169376.0,242758.0,139461.0,252293.0
169394.0,242753.0,139462.0,252286.0
169377.0,242789.0,139427.0,252269.0
169408.0,242804.0,139420.0,252243.0
169393.0,242823.0,139411.0,252231.0
169427.0,242861.0,139443.0,252210.0
169459.0,242874.0,139425.0,252170.0
169464.0,242897.0,139419.0,252144.0
169471.0,242924.0,139404.0,252136.0
169464.0,242933.0,139354.0,252095.0
169497.0,242945.0,139332.0,252056.0
169500.0,242960.0,139335.0,252040.0
169530.0,242986.0,139348.0,252062.0
169544.0,242996.0,139348.0,252061.0
169541.0,243037.0,139358.0,252065.0
169566.0,243062.0,139344.0,252020.0
169591.0,243076.0,139343.0,251998.0
169599.0,243108.0,139295.0,251928.0
169606.0,243117.0,139227.0,251857.0
169611.0,243122.0,139153.0,251799.0
169659.0,243125.0,139139.0,251734.0
169626.0,243176.0,139074.0,251676.0
169671.0,243201.0,139063.0,251660.0
169648.0,243235.0,139052.0,251701.0
169669.0,243209.0,139081.0,251708.0
169646.0,243194.0,139086.0,251723.0
169619.0,243120.0,139129.0,251755.0
169611.0,243072.0,139177.0,251812.0
169569.0,243020.0,139214.0,251823.0
169511.0,242963.0,139281.0,251906.0
169490.0,242900.0,139356.0,251969.0
169446.0,242823.0,139408.0,252043.0
169422.0,242770.0,139440.0,252083.0
169415.0,242731.0,139539.0,252110.0
169373.0,242661.0,139595.0,252157.0
169356.0,242652.0,139651.0,252268.0
169366.0,242612.0,139701.0,252348.0
169338.0,242594.0,139749.0,252379.0
169315.0,242563.0,139766.0,252396.0
169325.0,242549.0,139795.0,252431.0
169312.0,242536.0,139817.0,252428.0
169309.0,242493.0,139858.0,252453.0
169307.0,242473.0,139845.0,252469.0
169304.0,242462.0,139846.0,252485.0
169305.0,242461.0,139842.0,252522.0
169281.0,242473.0,139820.0,252534.0
169301.0,242492.0,139825.0,252550.0
169330.0,242487.0,139804.0,252551.0
169338.0,242542.0,139788.0,252544.0
169328.0,242546.0,139789.0,252572.0
169327.0,242591.0,139800.0,252570.0
169374.0,242576.0,139781.0,252580.0
169376.0,242617.0,139783.0,252496.0
169374.0,242624.0,139741.0,252512.0
169404.0,242572.0,139772.0,252500.0
169374.0,242604.0,139789.0,252507.0
169380.0,242608.0,139779.0,252487.0
169373.0,242613.0,139779.0,252499.0
169387.0,242602.0,139766.0,252463.0
169364.0,242606.0,139749.0,252447.0
169369.0,242610.0,139717.0,252447.0
169381.0,242606.0,139692.0,252459.0
169408.0,242612.0,139720.0,252459.0
169359.0,242601.0,139712.0,252443.0
169405.0,242602.0,139694.0,252434.0
