170316.0,284901.0,146445.0,273391.0
170312.0,284900.0,146470.0,273467.0
170394.0,284993.0,146488.0,273554.0
170412.0,285098.0,146535.0,273692.0
170430.0,285208.0,146627.0,273782.0
170488.0,285266.0,146710.0,273887.0
170548.0,285262.0,146737.0,273870.0
170520.0,285341.0,146767.0,273873.0
170556.0,285389.0,146745.0,273853.0
170577.0,285403.0,146766.0,273841.0
170575.0,285422.0,146723.0,273787.0
170583.0,285462.0,146701.0,273721.0
170592.0,285495.0,146700.0,273715.0
170628.0,285501.0,146659.0,273690.0
170605.0,285497.0,146653.0,273601.0
170609.0,285490.0,146607.0,273550.0
170575.0,285505.0,146576.0,273485.0
170569.0,285494.0,146535.0,273484.0
170581.0,285475.0,146528.0,273379.0
170583.0,285480.0,146514.0,273412.0
170552.0,285502.0,146499.0,273378.0
170521.0,285435.0,146491.0,273315.0
170497.0,285385.0,146501.0,273320.0
170450.0,285309.0,146487.0,273314.0
170411.0,285190.0,146490.0,273288.0
170351.0,285075.0,146494.0,273260.0
170273.0,284882.0,146465.0,273226.0
170212.0,284765.0,146484.0,273190.0
170130.0,284613.0,146446.0,273173.0
170026.0,284431.0,146424.0,273154.0
169938.0,284221.0,146373.0,273065.0
169849.0,284063.0,146385.0,273025.0
169773.0,283945.0,146347.0,273015.0
169687.0,283817.0,146321.0,272989.0
169632.0,283668.0,146305.0,272898.0
169565.0,283620.0,146295.0,272887.0
169503.0,283461.0,146238.0,272813.0
169456.0,283408.0,146201.0,272750.0
169405.0,283356.0,146152.0,272717.0
169370.0,283293.0,146130.0,272679.0
169364.0,283284.0,146108.0,272668.0
169300.0,283267.0,146094.0,272643.0
169286.0,283192.0,146107.0,272631.0
169279.0,283173.0,146094.0,272673.0
169245.0,283155.0,146102.0,272688.0
169273.0,283157.0,146115.0,272670.0
169264.0,283143.0,146124.0,272667.0
169252.0,283122.0,146122.0,272634.0
169264.0,283145.0,146096.0,272652.0
169244.0,283161.0,146103.0,272618.0
169263.0,283174.0,146121.0,272632.0
169250.0,283188.0,146110.0,272605.0
169288.0,283190.0,146100.0,272653.0
169250.0,283192.0,146126.0,272636.0
169259.0,283153.0,146130.0,272601.0
169225.0,283125.0,146114.0,272589.0
169226.0,283059.0,146126.0,272568.0
169164.0,283007.0,146112.0,272550.0
169156.0,282971.0,146087.0,272520.0
169128.0,282913.0,146076.0,272487.0
169100.0,282853.0,146082.0,272445.0
169074.0,282812.0,146082.0,272461.0
169022.0,282736.0,146071.0,272472.0
169046.0,282711.0,146061.0,272462.0
168979.0,282649.0,146091.0,272453.0
168949.0,282638.0,146065.0,272467.0
168931.0,282559.0,146043.0,272443.0
168928.0,282571.0,146039.0,272415.0
168906.0,282489.0,146067.0,272434.0
168881.0,282493.0,146006.0,272392.0
168882.0,282446.0,146026.0,272411.0
168864.0,282431.0,146016.0,272412.0
168873.0,282433.0,146040.0,272384.0
168873.0,282453.0,146021.0,272447.0
168855.0,282403.0,146034.0,272418.0
168853.0,282422.0,146002.0,272448.0
168861.0,282419.0,145999.0,272409.0
168856.0,282408.0,146000.0,272403.0
168837.0,282432.0,145984.0,272425.0
168864.0,282453.0,145979.0,272415.0
168880.0,282441.0,145985.0,272405.0
168863.0,282467.0,145998.0,272413.0
168880.0,282464.0,145983.0,272455.0
168889.0,282448.0,146001.0,272450.0
168872.0,282527.0,145976.0,272447.0
168903.0,282529.0,145937.0,272450.0
168934.0,282519.0,145971.0,272424.0
168957.0,282579.0,145961.0,272428.0
168931.0,282564.0,145960.0,272441.0
168935.0,282547.0,145952.0,272446.0
168944.0,282590.0,145942.0,272444.0
168945.0,282598.0,145940.0,272459.0
168957.0,282638.0,145950.0,272445.0
168980.0,282636.0,145941.0,272454.0
168957.0,282643.0,145956.0,272480.0
168978.0,282697.0,145939.0,272487.0
168987.0,282679.0,145935.0,272489.0
169016.0,282704.0,145919.0,272492.0
169007.0,282710.0,145954.0,272467.0
169003.0,282700.0,145890.0,272487.0
169018.0,282715.0,145893.0,272457.0
169018.0,282716.0,145902.0,272483.0
169016.0,282703.0,145879.0,272444.0
168928.0,282532.0,145891.0,272486.0
168849.0,282406.0,145863.0,272452.0
168788.0,282233.0,145842.0,272467.0
168668.0,282077.0,145840.0,272461.0
168567.0,281901.0,145831.0,272419.0
168462.0,281709.0,145808.0,272400.0
168412.0,281503.0,145840.0,272372.0
168289.0,281392.0,145811.0,272415.0
168190.0,281225.0,145811.0,272397.0
168124.0,281106.0,145776.0,272386.0
168039.0,280958.0,145806.0,272375.0
167983.0,280841.0,145822.0,272360.0
167898.0,280751.0,145802.0,272341.0
167860.0,280714.0,145787.0,272336.0
167826.0,280644.0,145784.0,272326.0
167764.0,280581.0,145792.0,272306.0
167749.0,280505.0,145765.0,272375.0
167744.0,280532.0,145827.0,272388.0
167741.0,280512.0,145827.0,272387.0
167736.0,280516.0,145822.0,272466.0
167747.0,280591.0,145844.0,272490.0
167774.0,280611.0,145864.0,272530.0
167765.0,280678.0,145908.0,272509.0
167812.0,280706.0,145902.0,272585.0
167856.0,280769.0,145918.0,272622.0
167862.0,280817.0,145912.0,272643.0
167876.0,280860.0,145927.0,272654.0
167916.0,280896.0,145920.0,272675.0
167933.0,280948.0,145939.0,272689.0
167978.0,280948.0,145946.0,272722.0
167956.0,280956.0,145962.0,272722.0
167964.0,280983.0,145991.0,272718.0
167951.0,280953.0,145991.0,272727.0
167957.0,280934.0,145961.0,272730.0
167951.0,280935.0,145990.0,272751.0
167949.0,280883.0,145983.0,272736.0
167905.0,280842.0,146004.0,272748.0
167846.0,280761.0,146020.0,272715.0
167862.0,280754.0,146008.0,272732.0
167818.0,280721.0,146021.0,272808.0
167804.0,280682.0,146051.0,272772.0
167776.0,280681.0,146043.0,272819.0
167764.0,280655.0,146048.0,272839.0
167736.0,280634.0,146083.0,272793.0
167758.0,280678.0,146082.0,272833.0
167754.0,280664.0,146100.0,272862.0
167737.0,280667.0,146094.0,272861.0
167770.0,280703.0,146119.0,272886.0
167763.0,280726.0,146119.0,272897.0
167797.0,280717.0,146160.0,272912.0
167810.0,280811.0,146145.0,272932.0
167836.0,280798.0,146154.0,272920.0
167835.0,280862.0,146151.0,272961.0
167847.0,280885.0,146160.0,272951.0
167856.0,280926.0,146147.0,272953.0
167884.0,280957.0,146188.0,272971.0
167915.0,281065.0,146224.0,272987.0
167933.0,281093.0,146201.0,272987.0
167961.0,281098.0,146211.0,273002.0
167970.0,281116.0,146242.0,273007.0
167996.0,281231.0,146261.0,272975.0
168004.0,281236.0,146237.0,272996.0
168026.0,281286.0,146246.0,272992.0
168035.0,281287.0,146250.0,273002.0
168055.0,281370.0,146268.0,273012.0
168085.0,281387.0,146260.0,273036.0
168078.0,281409.0,146278.0,273020.0
168102.0,281466.0,146251.0,273032.0
168117.0,281512.0,146286.0,273075.0
168157.0,281554.0,146283.0,273081.0
168162.0,281585.0,146291.0,273073.0
168181.0,281633.0,146290.0,273115.0
168206.0,281680.0,146287.0,273138.0
168228.0,281690.0,146289.0,273113.0
168259.0,281771.0,146289.0,273143.0
168275.0,281783.0,146288.0,273157.0
168229.0,281775.0,146265.0,273173.0
168249.0,281729.0,146261.0,273141.0
168239.0,281643.0,146280.0,273108.0
168160.0,281508.0,146251.0,273100.0
168070.0,281368.0,146228.0,273078.0
167966.0,281194.0,146234.0,273024.0
167885.0,280974.0,146240.0,273040.0
167763.0,280790.0,146216.0,273009.0
167671.0,280663.0,146254.0,272971.0
167560.0,280424.0,146195.0,272969.0
167479.0,280276.0,146199.0,272920.0
167394.0,280159.0,146209.0,272924.0
167304.0,280043.0,146198.0,272841.0
167274.0,279917.0,146191.0,272877.0
167188.0,279812.0,146192.0,272848.0
167146.0,279734.0,146229.0,272844.0
167152.0,279690.0,146203.0,272866.0
167085.0,279607.0,146211.0,272836.0
167061.0,279566.0,146219.0,272798.0
167038.0,279525.0,146192.0,272827.0
167025.0,279470.0,146213.0,272790.0
167012.0,279490.0,146203.0,272825.0
167016.0,279478.0,146205.0,272797.0
167013.0,279492.0,146184.0,272811.0
167020.0,279514.0,146156.0,272807.0
166980.0,279535.0,146177.0,272797.0
167029.0,279506.0,146152.0,272794.0
167039.0,279503.0,146170.0,272788.0
167023.0,279532.0,146191.0,272828.0
167028.0,279561.0,146159.0,272842.0
167032.0,279564.0,146188.0,272841.0
167024.0,279586.0,146164.0,272809.0
167041.0,279550.0,146179.0,272831.0
167015.0,279516.0,146180.0,272773.0
166998.0,279480.0,146156.0,272800.0
166978.0,279451.0,146145.0,272806.0
166961.0,279431.0,146156.0,272781.0
166938.0,279349.0,146134.0,272778.0
166886.0,279316.0,146120.0,272777.0
166875.0,279271.0,146127.0,272760.0
166832.0,279237.0,146127.0,272753.0
166821.0,279142.0,146131.0,272758.0
166821.0,279128.0,146160.0,272742.0
166741.0,279101.0,146142.0,272762.0
166739.0,279048.0,146152.0,272730.0
166712.0,279072.0,146151.0,272725.0
166730.0,279037.0,146138.0,272780.0
166695.0,279054.0,146180.0,272791.0
166662.0,279065.0,146198.0,272778.0
166689.0,279038.0,146227.0,272804.0
166704.0,279074.0,146216.0,272833.0
166696.0,279108.0,146244.0,272804.0
166730.0,279145.0,146239.0,272792.0
166766.0,279187.0,146253.0,272819.0
166771.0,279213.0,146233.0,272867.0
166784.0,279264.0,146216.0,272808.0
166805.0,279301.0,146231.0,272891.0
166828.0,279307.0,146250.0,272918.0
166852.0,279375.0,146261.0,272910.0
166900.0,279368.0,146227.0,272883.0
166904.0,279452.0,146256.0,272924.0
166928.0,279503.0,146260.0,272937.0
166948.0,279598.0,146245.0,272949.0
166979.0,279664.0,146243.0,272973.0
166984.0,279660.0,146261.0,272942.0
167021.0,279715.0,146232.0,272972.0
167055.0,279730.0,146258.0,272954.0
167066.0,279765.0,146251.0,272950.0
167090.0,279807.0,146252.0,272977.0
167125.0,279891.0,146246.0,272977.0
167133.0,279919.0,146225.0,273008.0
167146.0,279966.0,146221.0,272995.0
167195.0,279955.0,146230.0,272898.0
167226.0,279990.0,146236.0,272914.0
167218.0,280053.0,146212.0,272926.0
167238.0,280108.0,146212.0,272902.0
167274.0,280110.0,146210.0,272896.0
167282.0,280132.0,146239.0,272928.0
167297.0,280137.0,146225.0,272902.0
167295.0,280175.0,146214.0,272930.0
167310.0,280243.0,146219.0,272891.0
167320.0,280240.0,146231.0,272859.0
167319.0,280187.0,146230.0,272836.0
167288.0,280113.0,146210.0,272827.0
167221.0,279965.0,146196.0,272817.0
167160.0,279848.0,146202.0,272727.0
167046.0,279671.0,146190.0,272725.0
166942.0,279487.0,146180.0,272679.0
166840.0,279255.0,146197.0,272624.0
166718.0,279078.0,146158.0,272625.0
166620.0,278871.0,146145.0,272599.0
166507.0,278691.0,146123.0,272572.0
166406.0,278536.0,146095.0,272519.0
166342.0,278316.0,146072.0,272504.0
166241.0,278200.0,146104.0,272514.0
166200.0,278103.0,146072.0,272485.0
166126.0,277989.0,146059.0,272475.0
166037.0,277929.0,146076.0,272437.0
165993.0,277825.0,146054.0,272460.0
165967.0,277775.0,146043.0,272451.0
165962.0,277730.0,146063.0,272431.0
165962.0,277714.0,146068.0,272480.0
165941.0,277695.0,146084.0,272440.0
165945.0,277713.0,146094.0,272415.0
165917.0,277657.0,146076.0,272437.0
165919.0,277717.0,146087.0,272428.0
165932.0,277728.0,146105.0,272423.0
165983.0,277739.0,146097.0,272438.0
165958.0,277778.0,146125.0,272415.0
165994.0,277811.0,146152.0,272471.0
166007.0,277795.0,146148.0,272433.0
166012.0,277836.0,146161.0,272462.0
165998.0,277810.0,146151.0,272436.0
165978.0,277845.0,146170.0,272437.0
165967.0,277792.0,146167.0,272451.0
165997.0,277755.0,146166.0,272426.0
165946.0,277757.0,146193.0,272450.0
165942.0,277727.0,146172.0,272428.0
165923.0,277676.0,146180.0,272425.0
165902.0,277651.0,146186.0,272442.0
165878.0,277626.0,146173.0,272398.0
165860.0,277617.0,146182.0,272414.0
165835.0,277570.0,146181.0,272394.0
165811.0,277538.0,146205.0,272383.0
165799.0,277489.0,146210.0,272379.0
165806.0,277492.0,146196.0,272372.0
165768.0,277472.0,146209.0,272379.0
165746.0,277456.0,146170.0,272333.0
165790.0,277412.0,146235.0,272337.0
165764.0,277414.0,146184.0,272367.0
165757.0,277453.0,146213.0,272347.0
165768.0,277463.0,146217.0,272358.0
165791.0,277477.0,146210.0,272363.0
165784.0,277484.0,146233.0,272442.0
165803.0,277494.0,146240.0,272396.0
165832.0,277522.0,146232.0,272356.0
165830.0,277587.0,146222.0,272368.0
165857.0,277626.0,146231.0,272365.0
165864.0,277623.0,146250.0,272363.0
165884.0,277690.0,146254.0,272348.0
165916.0,277729.0,146239.0,272392.0
165902.0,277763.0,146251.0,272348.0
165956.0,277823.0,146260.0,272320.0
166003.0,277845.0,146290.0,272359.0
165995.0,277877.0,146241.0,272358.0
166024.0,277923.0,146279.0,272364.0
166041.0,277953.0,146283.0,272333.0
166073.0,277999.0,146260.0,272397.0
166096.0,278049.0,146288.0,272366.0
166111.0,278101.0,146292.0,272335.0
166157.0,278117.0,146286.0,272358.0
166154.0,278173.0,146255.0,272326.0
166161.0,278179.0,146273.0,272308.0
166185.0,278191.0,146294.0,272312.0
166193.0,278235.0,146270.0,272364.0
166196.0,278246.0,146278.0,272293.0
166226.0,278284.0,146245.0,272328.0
166251.0,278264.0,146247.0,272303.0
166223.0,278298.0,146278.0,272299.0
166245.0,278266.0,146281.0,272272.0
166297.0,278388.0,146241.0,272271.0
166275.0,278359.0,146235.0,272306.0
166275.0,278412.0,146253.0,272289.0
166299.0,278427.0,146240.0,272287.0
166321.0,278424.0,146240.0,272316.0
166334.0,278473.0,146201.0,272323.0
166355.0,278476.0,146216.0,272306.0
166342.0,278474.0,146206.0,272316.0
166315.0,278417.0,146225.0,272304.0
166277.0,278282.0,146194.0,272260.0
166201.0,278167.0,146129.0,272210.0
166148.0,277992.0,146120.0,272139.0
166064.0,277815.0,146128.0,272059.0
165942.0,277620.0,146087.0,272026.0
165837.0,277438.0,146087.0,271996.0
165740.0,277293.0,146033.0,271959.0
165659.0,277096.0,146059.0,271887.0
165539.0,276949.0,146013.0,271818.0
165472.0,276799.0,146012.0,271862.0
165411.0,276681.0,146019.0,271839.0
165330.0,276548.0,146033.0,271847.0
165265.0,276454.0,146024.0,271824.0
165216.0,276386.0,146009.0,271810.0
165163.0,276305.0,146010.0,271805.0
165132.0,276221.0,146014.0,271823.0
165107.0,276213.0,146025.0,271733.0
165086.0,276121.0,146040.0,271738.0
165066.0,276066.0,146029.0,271741.0
165060.0,276109.0,146038.0,271769.0
165047.0,276045.0,146057.0,271738.0
165032.0,276081.0,146040.0,271733.0
165052.0,276084.0,146043.0,271761.0
165042.0,276089.0,146048.0,271723.0
165073.0,276106.0,146060.0,271745.0
165089.0,276081.0,146081.0,271730.0
165106.0,276153.0,146050.0,271741.0
165091.0,276151.0,146057.0,271737.0
165081.0,276138.0,146055.0,271754.0
165117.0,276124.0,146094.0,271793.0
165094.0,276104.0,146083.0,271746.0
165081.0,276133.0,146084.0,271749.0
165053.0,276067.0,146116.0,271778.0
165039.0,276002.0,146098.0,271760.0
164983.0,275981.0,146071.0,271793.0
164988.0,275910.0,146109.0,271696.0
164933.0,275865.0,146130.0,271736.0
164916.0,275806.0,146095.0,271671.0
164862.0,275736.0,146114.0,271699.0
164877.0,275712.0,146098.0,271652.0
164832.0,275665.0,146101.0,271657.0
164828.0,275656.0,146126.0,271662.0
164783.0,275638.0,146111.0,271652.0
164788.0,275606.0,146116.0,271627.0
164783.0,275627.0,146122.0,271618.0
164805.0,275597.0,146128.0,271610.0
164796.0,275611.0,146110.0,271623.0
164790.0,275596.0,146120.0,271609.0
164802.0,275610.0,146119.0,271615.0
164782.0,275656.0,146136.0,271606.0
164825.0,275662.0,146141.0,271648.0
164785.0,275696.0,146127.0,271662.0
164850.0,275725.0,146142.0,271639.0
164855.0,275787.0,146192.0,271609.0
164873.0,275802.0,146168.0,271634.0
164918.0,275880.0,146174.0,271659.0
164942.0,275938.0,146163.0,271701.0
164961.0,275962.0,146189.0,271712.0
164989.0,276023.0,146175.0,271725.0
165007.0,275950.0,146183.0,271669.0
165030.0,276101.0,146200.0,271697.0
165073.0,276146.0,146198.0,271677.0
165082.0,276207.0,146232.0,271697.0
165120.0,276236.0,146224.0,271687.0
165114.0,276250.0,146215.0,271713.0
165155.0,276270.0,146242.0,271683.0
165176.0,276313.0,146243.0,271718.0
165182.0,276369.0,146241.0,271691.0
165204.0,276379.0,146232.0,271699.0
165232.0,276397.0,146239.0,271705.0
165249.0,276413.0,146210.0,271669.0
165232.0,276436.0,146224.0,271680.0
165248.0,276430.0,146221.0,271643.0
165262.0,276454.0,146220.0,271628.0
165255.0,276527.0,146194.0,271674.0
165300.0,276443.0,146214.0,271651.0
165289.0,276510.0,146221.0,271663.0
165280.0,276530.0,146205.0,271644.0
165298.0,276520.0,146193.0,271665.0
165278.0,276502.0,146192.0,271623.0
165284.0,276510.0,146189.0,271598.0
165257.0,276469.0,146192.0,271615.0
165250.0,276439.0,146228.0,271591.0
165191.0,276320.0,146212.0,271574.0
165140.0,276240.0,146202.0,271582.0
165058.0,276019.0,146218.0,271523.0
164947.0,275869.0,146167.0,271486.0
164874.0,275686.0,146190.0,271495.0
164753.0,275521.0,146178.0,271395.0
164650.0,275335.0,146186.0,271389.0
164576.0,275173.0,146165.0,271386.0
164481.0,275052.0,146165.0,271360.0
164396.0,274917.0,146171.0,271345.0
164352.0,274796.0,146158.0,271332.0
164280.0,274724.0,146183.0,271320.0
164207.0,274628.0,146182.0,271333.0
164207.0,274564.0,146187.0,271294.0
164194.0,274526.0,146181.0,271306.0
164161.0,274526.0,146182.0,271283.0
164143.0,274500.0,146205.0,271296.0
164157.0,274511.0,146205.0,271268.0
164161.0,274521.0,146215.0,271298.0
164150.0,274557.0,146216.0,271277.0
164174.0,274547.0,146231.0,271325.0
164174.0,274596.0,146231.0,271311.0
164184.0,274612.0,146217.0,271316.0
164208.0,274643.0,146249.0,271335.0
164238.0,274719.0,146235.0,271336.0
164265.0,274765.0,146262.0,271354.0
164277.0,274812.0,146272.0,271396.0
164303.0,274856.0,146291.0,271363.0
164331.0,274860.0,146269.0,271372.0
164360.0,274879.0,146296.0,271398.0
164338.0,274890.0,146274.0,271367.0
164346.0,274917.0,146294.0,271388.0
164334.0,274884.0,146291.0,271431.0
164351.0,274906.0,146310.0,271350.0
164342.0,274880.0,146308.0,271349.0
164348.0,274869.0,146304.0,271356.0
164306.0,274811.0,146305.0,271355.0
164295.0,274811.0,146300.0,271345.0
164294.0,274778.0,146286.0,271342.0
164296.0,274767.0,146316.0,271318.0
164269.0,274750.0,146311.0,271312.0
164262.0,274752.0,146315.0,271283.0
164257.0,274764.0,146288.0,271297.0
164256.0,274742.0,146318.0,271286.0
164284.0,274766.0,146340.0,271324.0
164245.0,274777.0,146329.0,271271.0
164272.0,274864.0,146309.0,271278.0
164292.0,274869.0,146320.0,271294.0
164295.0,274870.0,146328.0,271301.0
164322.0,274929.0,146338.0,271265.0
164355.0,274958.0,146370.0,271260.0
164390.0,275044.0,146342.0,271307.0
164422.0,275084.0,146348.0,271314.0
164435.0,275122.0,146357.0,271322.0
164454.0,275187.0,146392.0,271349.0
164504.0,275242.0,146384.0,271366.0
164532.0,275279.0,146402.0,271371.0
164561.0,275362.0,146377.0,271350.0
164619.0,275393.0,146396.0,271345.0
164636.0,275452.0,146407.0,271378.0
164674.0,275525.0,146398.0,271391.0
164689.0,275542.0,146407.0,271382.0
164701.0,275642.0,146435.0,271375.0
164773.0,275663.0,146429.0,271397.0
164776.0,275740.0,146433.0,271409.0
164790.0,275781.0,146436.0,271417.0
164823.0,275814.0,146454.0,271437.0
164853.0,275859.0,146473.0,271464.0
164870.0,275915.0,146468.0,271460.0
164904.0,275942.0,146449.0,271418.0
164887.0,275979.0,146450.0,271458.0
164900.0,276028.0,146495.0,271453.0
164939.0,276041.0,146493.0,271490.0
164939.0,276053.0,146531.0,271485.0
164938.0,276051.0,146534.0,271521.0
