175364.0,292536.0,148467.0,274389.0
175361.0,292548.0,148569.0,274460.0
175367.0,292587.0,148626.0,274587.0
175365.0,292650.0,148675.0,274664.0
175335.0,292646.0,148747.0,274804.0
175306.0,292660.0,148808.0,274880.0
175256.0,292680.0,148881.0,275034.0
175217.0,292678.0,148981.0,275126.0
175184.0,292690.0,149061.0,275301.0
175127.0,292684.0,149146.0,275440.0
175124.0,292698.0,149248.0,275571.0
175047.0,292723.0,149365.0,275749.0
175046.0,292743.0,149468.0,275949.0
175026.0,292734.0,149609.0,276147.0
174982.0,292767.0,149688.0,276304.0
174954.0,292842.0,149809.0,276499.0
174950.0,292855.0,149924.0,276664.0
174974.0,292923.0,150045.0,276833.0
174944.0,293046.0,150169.0,277103.0
174974.0,293166.0,150292.0,277281.0
174991.0,293319.0,150368.0,277496.0
175048.0,293452.0,150553.0,277642.0
175089.0,293626.0,150640.0,277881.0
175152.0,293770.0,150752.0,278077.0
175173.0,293944.0,150888.0,278257.0
175252.0,294128.0,151001.0,278451.0
175336.0,294318.0,151110.0,278636.0
175406.0,294527.0,151206.0,278826.0
175522.0,294697.0,151331.0,278996.0
175637.0,294932.0,151411.0,279102.0
175799.0,295192.0,151476.0,279261.0
175879.0,295423.0,151552.0,279389.0
176003.0,295628.0,151607.0,279454.0
176104.0,295841.0,151652.0,279572.0
176196.0,295999.0,151679.0,279670.0
176262.0,296193.0,151733.0,279734.0
176395.0,296542.0,151806.0,279957.0
176483.0,296724.0,151936.0,280144.0
176558.0,296828.0,151988.0,280307.0
176600.0,296988.0,152070.0,280514.0
176663.0,297162.0,152146.0,280666.0
176715.0,297273.0,152194.0,280857.0
176791.0,297455.0,152255.0,280953.0
176842.0,297579.0,152321.0,281099.0
176918.0,297720.0,152370.0,281217.0
176955.0,297974.0,152466.0,281371.0
177049.0,298151.0,152484.0,281508.0
177154.0,298295.0,152590.0,281715.0
177247.0,298477.0,152664.0,281855.0
177364.0,298673.0,152729.0,282009.0
177432.0,298835.0,152794.0,282102.0
177527.0,299027.0,152806.0,282140.0
177649.0,299211.0,152852.0,282179.0
177742.0,299417.0,152865.0,282217.0
177801.0,299542.0,152926.0,282270.0
177857.0,299718.0,152930.0,282312.0
177967.0,299871.0,152996.0,282417.0
178045.0,300035.0,153042.0,282437.0
178133.0,300200.0,153112.0,282566.0
178187.0,300324.0,153193.0,282658.0
178268.0,300492.0,153253.0,282715.0
178317.0,300625.0,153276.0,282839.0
178394.0,300803.0,153371.0,282902.0
178475.0,300930.0,153407.0,282988.0
178539.0,301119.0,153471.0,283116.0
178616.0,301230.0,153525.0,283158.0
178698.0,301427.0,153605.0,283315.0
178787.0,301551.0,153682.0,283411.0
178846.0,301739.0,153761.0,283558.0
178929.0,301908.0,153824.0,283650.0
178996.0,302042.0,153923.0,283759.0
179063.0,302267.0,153994.0,283875.0
179171.0,302416.0,154053.0,284019.0
179247.0,302583.0,154152.0,284130.0
179317.0,302717.0,154288.0,284235.0
179417.0,302939.0,154344.0,284388.0
179489.0,303147.0,154390.0,284477.0
179613.0,303301.0,154464.0,284593.0
179674.0,303460.0,154539.0,284689.0
179763.0,303650.0,154603.0,284796.0
179880.0,303856.0,154681.0,284876.0
179951.0,304005.0,154732.0,285011.0
180075.0,304182.0,154816.0,285091.0
180150.0,304382.0,154855.0,285159.0
180257.0,304548.0,154914.0,285253.0
180298.0,304697.0,154969.0,285329.0
180401.0,304874.0,155015.0,285430.0
180505.0,305102.0,155017.0,285512.0
180604.0,305261.0,155089.0,285553.0
180707.0,305429.0,155099.0,285679.0
180784.0,305604.0,155138.0,285734.0
180882.0,305806.0,155132.0,285799.0
180985.0,305939.0,155171.0,285866.0
181059.0,306118.0,155161.0,285878.0
181178.0,306273.0,155164.0,285923.0
181233.0,306433.0,155190.0,285967.0
181326.0,306604.0,155202.0,286005.0
181376.0,306726.0,155214.0,286061.0
181444.0,306912.0,155263.0,286147.0
181547.0,307034.0,155277.0,286213.0
181647.0,307199.0,155298.0,286296.0
181706.0,307408.0,155336.0,286402.0
181788.0,307511.0,155350.0,286447.0
181882.0,307669.0,155381.0,286514.0
181959.0,307843.0,155372.0,286536.0
182002.0,307949.0,155442.0,286631.0
182062.0,308088.0,155450.0,286708.0
182120.0,308166.0,155497.0,286712.0
182184.0,308268.0,155527.0,286755.0
182258.0,308362.0,155578.0,286821.0
182286.0,308480.0,155619.0,286835.0
182338.0,308557.0,155662.0,286916.0
182380.0,308631.0,155711.0,286995.0
182432.0,308741.0,155739.0,287082.0
182486.0,308792.0,155803.0,287091.0
182546.0,308941.0,155841.0,287121.0
182584.0,309056.0,155889.0,287200.0
182647.0,309159.0,155923.0,287279.0
182724.0,309285.0,155936.0,287255.0
182791.0,309381.0,155992.0,287317.0
182839.0,309486.0,156024.0,287423.0
182911.0,309648.0,156081.0,287413.0
183012.0,309739.0,156103.0,287523.0
183043.0,309847.0,156099.0,287513.0
183120.0,309966.0,156129.0,287538.0
183163.0,310088.0,156152.0,287554.0
183232.0,310190.0,156158.0,287590.0
183301.0,310300.0,156161.0,287623.0
183373.0,310415.0,156171.0,287661.0
183438.0,310548.0,156171.0,287683.0
183506.0,310658.0,156152.0,287714.0
183544.0,310813.0,156201.0,287753.0
183591.0,310884.0,156193.0,287725.0
183669.0,311004.0,156180.0,287787.0
183711.0,311130.0,156195.0,287825.0
183787.0,311189.0,156210.0,287863.0
183803.0,311335.0,156229.0,287862.0
183877.0,311443.0,156211.0,287918.0
183937.0,311522.0,156221.0,287877.0
184005.0,311580.0,156257.0,287985.0
184045.0,311673.0,156292.0,288004.0
184104.0,311776.0,156297.0,287967.0
184189.0,311871.0,156320.0,287983.0
184220.0,311979.0,156337.0,287973.0
184235.0,311982.0,156285.0,287966.0
184290.0,312095.0,156297.0,287981.0
184336.0,312215.0,156293.0,287960.0
184384.0,312326.0,156294.0,287961.0
184444.0,312382.0,156303.0,287972.0
184497.0,312469.0,156312.0,287997.0
184531.0,312531.0,156342.0,287987.0
184561.0,312614.0,156346.0,288047.0
184624.0,312704.0,156382.0,288068.0
184690.0,312783.0,156381.0,288063.0
184699.0,312877.0,156411.0,288122.0
184747.0,312905.0,156409.0,288129.0
184773.0,313017.0,156442.0,288148.0
184828.0,313099.0,156457.0,288161.0
184881.0,313216.0,156478.0,288186.0
184917.0,313276.0,156490.0,288223.0
184982.0,313350.0,156506.0,288255.0
185001.0,313419.0,156524.0,288242.0
185065.0,313540.0,156530.0,288284.0
185112.0,313616.0,156547.0,288295.0
185146.0,313714.0,156553.0,288288.0
185176.0,313778.0,156585.0,288293.0
185231.0,313850.0,156548.0,288341.0
185270.0,313931.0,156582.0,288326.0
185333.0,313999.0,156590.0,288389.0
185340.0,314123.0,156582.0,288350.0
185405.0,314212.0,156571.0,288399.0
185475.0,314325.0,156590.0,288452.0
185517.0,314355.0,156594.0,288457.0
185552.0,314440.0,156554.0,288419.0
185601.0,314475.0,156584.0,288409.0
185654.0,314570.0,156588.0,288435.0
185637.0,314614.0,156572.0,288413.0
185700.0,314678.0,156583.0,288419.0
185696.0,314759.0,156594.0,288426.0
185762.0,314845.0,156574.0,288418.0
185834.0,314906.0,156569.0,288419.0
185865.0,314951.0,156589.0,288425.0
185897.0,315040.0,156584.0,288432.0
185921.0,315105.0,156576.0,288424.0
185991.0,315147.0,156552.0,288465.0
186006.0,315255.0,156554.0,288482.0
186042.0,315341.0,156553.0,288449.0
186079.0,315418.0,156562.0,288485.0
186140.0,315476.0,156547.0,288460.0
186206.0,315557.0,156511.0,288439.0
186198.0,315654.0,156560.0,288484.0
186242.0,315681.0,156520.0,288513.0
186299.0,315767.0,156528.0,288499.0
186308.0,315819.0,156542.0,288495.0
186346.0,315883.0,156528.0,288530.0
186411.0,315988.0,156566.0,288571.0
186437.0,316040.0,156547.0,288562.0
186461.0,316091.0,156544.0,288543.0
186491.0,316154.0,156553.0,288543.0
186530.0,316220.0,156553.0,288569.0
186555.0,316242.0,156585.0,288591.0
186585.0,316257.0,156558.0,288603.0
186602.0,316324.0,156556.0,288545.0
186634.0,316403.0,156539.0,288531.0
186659.0,316420.0,156562.0,288553.0
186688.0,316482.0,156586.0,288572.0
186719.0,316486.0,156578.0,288576.0
186744.0,316478.0,156580.0,288557.0
186745.0,316557.0,156578.0,288642.0
186774.0,316576.0,156603.0,288553.0
186797.0,316579.0,156608.0,288610.0
186805.0,316604.0,156598.0,288601.0
186816.0,316598.0,156586.0,288591.0
186835.0,316639.0,156586.0,288575.0
186860.0,316657.0,156597.0,288534.0
186860.0,316708.0,156575.0,288530.0
186893.0,316724.0,156582.0,288524.0
186921.0,316731.0,156548.0,288543.0
186919.0,316809.0,156597.0,288560.0
186929.0,316760.0,156576.0,288519.0
186955.0,316780.0,156593.0,288511.0
186966.0,316845.0,156600.0,288510.0
186947.0,316878.0,156593.0,288529.0
186997.0,316846.0,156576.0,288541.0
187003.0,316912.0,156599.0,288520.0
187039.0,316945.0,156609.0,288574.0
187036.0,317042.0,156617.0,288550.0
187056.0,317053.0,156622.0,288645.0
187093.0,317038.0,156635.0,288639.0
187109.0,317102.0,156649.0,288620.0
187123.0,317175.0,156645.0,288623.0
187138.0,317263.0,156652.0,288639.0
187175.0,317254.0,156648.0,288628.0
187193.0,317292.0,156629.0,288597.0
187190.0,317293.0,156633.0,288612.0
187202.0,317348.0,156633.0,288578.0
187247.0,317415.0,156644.0,288601.0
187275.0,317432.0,156638.0,288602.0
187287.0,317527.0,156632.0,288592.0
187326.0,317569.0,156631.0,288581.0
187370.0,317560.0,156605.0,288620.0
187360.0,317595.0,156615.0,288648.0
187359.0,317625.0,156613.0,288598.0
187387.0,317615.0,156618.0,288577.0
187407.0,317640.0,156625.0,288619.0
187400.0,317640.0,156623.0,288639.0
187436.0,317740.0,156605.0,288614.0
187450.0,317738.0,156618.0,288663.0
187451.0,317778.0,156622.0,288637.0
187503.0,317779.0,156630.0,288655.0
187476.0,317866.0,156621.0,288684.0
187510.0,317860.0,156612.0,288636.0
187543.0,317870.0,156619.0,288663.0
187567.0,317914.0,156648.0,288646.0
187569.0,317963.0,156644.0,288649.0
187572.0,317987.0,156609.0,288668.0
187604.0,318033.0,156616.0,288673.0
187616.0,318078.0,156591.0,288663.0
187681.0,318123.0,156611.0,288662.0
187697.0,318189.0,156634.0,288628.0
187725.0,318190.0,156622.0,288627.0
187720.0,318261.0,156634.0,288704.0
187761.0,318294.0,156628.0,288649.0
187787.0,318378.0,156632.0,288684.0
187796.0,318382.0,156609.0,288669.0
187797.0,318390.0,156623.0,288686.0
187848.0,318466.0,156602.0,288661.0
187878.0,318535.0,156616.0,288663.0
187906.0,318586.0,156627.0,288671.0
187939.0,318607.0,156617.0,288670.0
187953.0,318658.0,156632.0,288688.0
187963.0,318719.0,156599.0,288648.0
188005.0,318721.0,156626.0,288676.0
188008.0,318781.0,156614.0,288675.0
187986.0,318845.0,156589.0,288637.0
188066.0,318897.0,156614.0,288678.0
188075.0,318920.0,156603.0,288651.0
188120.0,318987.0,156623.0,288663.0
188151.0,319049.0,156583.0,288707.0
188152.0,319101.0,156588.0,288693.0
188205.0,319149.0,156580.0,288655.0
188224.0,319208.0,156555.0,288659.0
188254.0,319279.0,156580.0,288620.0
188272.0,319319.0,156568.0,288642.0
188298.0,319347.0,156558.0,288639.0
188334.0,319379.0,156549.0,288629.0
188322.0,319429.0,156551.0,288602.0
188379.0,319464.0,156543.0,288601.0
188384.0,319443.0,156542.0,288628.0
188410.0,319507.0,156560.0,288604.0
188420.0,319512.0,156523.0,288597.0
188407.0,319558.0,156540.0,288574.0
188448.0,319563.0,156537.0,288617.0
188448.0,319625.0,156541.0,288604.0
188481.0,319634.0,156531.0,288591.0
188472.0,319679.0,156539.0,288594.0
188511.0,319675.0,156542.0,288642.0
188531.0,319730.0,156568.0,288603.0
188551.0,319750.0,156553.0,288622.0
188575.0,319763.0,156577.0,288605.0
188595.0,319786.0,156514.0,288562.0
188572.0,319772.0,156556.0,288614.0
188565.0,319820.0,156589.0,288643.0
188571.0,319801.0,156559.0,288614.0
188574.0,319777.0,156587.0,288630.0
188630.0,319754.0,156597.0,288606.0
188598.0,319807.0,156587.0,288631.0
188636.0,319788.0,156594.0,288572.0
188601.0,319802.0,156598.0,288608.0
188610.0,319813.0,156607.0,288625.0
188619.0,319772.0,156617.0,288646.0
188636.0,319803.0,156617.0,288628.0
188652.0,319838.0,156617.0,288602.0
188668.0,319844.0,156620.0,288618.0
188616.0,319860.0,156632.0,288618.0
188656.0,319842.0,156633.0,288606.0
188657.0,319886.0,156660.0,288638.0
188688.0,319941.0,156653.0,288622.0
188702.0,319945.0,156645.0,288658.0
188700.0,319988.0,156641.0,288673.0
188737.0,320001.0,156673.0,288711.0
188738.0,320056.0,156673.0,288691.0
188761.0,320084.0,156678.0,288668.0
188768.0,320099.0,156695.0,288678.0
188756.0,320137.0,156702.0,288721.0
188807.0,320184.0,156699.0,288723.0
188837.0,320190.0,156689.0,288669.0
188847.0,320244.0,156698.0,288662.0
188860.0,320246.0,156709.0,288676.0
188859.0,320289.0,156711.0,288670.0
188857.0,320333.0,156700.0,288660.0
188892.0,320330.0,156702.0,288673.0
188862.0,320327.0,156657.0,288637.0
188909.0,320361.0,156711.0,288656.0
188889.0,320374.0,156723.0,288631.0
188916.0,320371.0,156742.0,288660.0
188937.0,320397.0,156718.0,288643.0
188946.0,320426.0,156716.0,288599.0
188925.0,320412.0,156722.0,288578.0
188949.0,320458.0,156712.0,288606.0
188982.0,320442.0,156711.0,288560.0
188969.0,320474.0,156745.0,288601.0
188983.0,320429.0,156713.0,288540.0
188988.0,320452.0,156710.0,288579.0
188984.0,320453.0,156712.0,288520.0
188970.0,320487.0,156688.0,288522.0
188996.0,320501.0,156709.0,288511.0
189000.0,320508.0,156706.0,288507.0
189024.0,320508.0,156706.0,288492.0
189024.0,320565.0,156711.0,288481.0
189028.0,320597.0,156719.0,288502.0
189037.0,320565.0,156718.0,288457.0
189052.0,320642.0,156719.0,288488.0
189061.0,320634.0,156723.0,288464.0
189065.0,320662.0,156696.0,288486.0
189082.0,320710.0,156704.0,288458.0
189103.0,320708.0,156675.0,288490.0
189117.0,320685.0,156707.0,288468.0
189085.0,320697.0,156714.0,288479.0
189106.0,320723.0,156702.0,288454.0
189127.0,320722.0,156711.0,288429.0
189127.0,320763.0,156675.0,288465.0
189151.0,320751.0,156702.0,288437.0
189154.0,320781.0,156682.0,288418.0
189158.0,320799.0,156711.0,288429.0
189203.0,320843.0,156691.0,288425.0
189179.0,320879.0,156649.0,288387.0
189204.0,320887.0,156657.0,288400.0
189189.0,320926.0,156695.0,288353.0
189231.0,320912.0,156666.0,288363.0
189219.0,320923.0,156645.0,288342.0
189215.0,320901.0,156654.0,288366.0
189203.0,320935.0,156639.0,288335.0
189236.0,320926.0,156644.0,288376.0
189244.0,320948.0,156633.0,288293.0
189265.0,320975.0,156632.0,288344.0
189265.0,320973.0,156617.0,288289.0
189283.0,320979.0,156610.0,288304.0
189275.0,321022.0,156620.0,288283.0
189275.0,321035.0,156597.0,288234.0
189293.0,321065.0,156612.0,288259.0
189296.0,321080.0,156600.0,288290.0
189332.0,321060.0,156605.0,288267.0
189331.0,321092.0,156600.0,288299.0
189332.0,321105.0,156625.0,288247.0
189326.0,321109.0,156616.0,288313.0
189327.0,321069.0,156668.0,288322.0
189344.0,321118.0,156634.0,288323.0
189359.0,321170.0,156661.0,288303.0
189378.0,321160.0,156642.0,288311.0
189355.0,321216.0,156617.0,288338.0
189388.0,321178.0,156627.0,288323.0
189418.0,321190.0,156657.0,288347.0
189383.0,321184.0,156639.0,288312.0
189349.0,321156.0,156624.0,288329.0
189362.0,321148.0,156658.0,288385.0
189333.0,321118.0,156640.0,288363.0
189330.0,321089.0,156672.0,288376.0
189336.0,321059.0,156649.0,288399.0
189324.0,321022.0,156654.0,288390.0
189306.0,320969.0,156665.0,288380.0
189283.0,320920.0,156652.0,288378.0
189287.0,320931.0,156660.0,288366.0
189273.0,320877.0,156640.0,288368.0
189260.0,320856.0,156633.0,288304.0
189234.0,320820.0,156626.0,288370.0
189226.0,320766.0,156639.0,288355.0
189204.0,320723.0,156639.0,288342.0
189166.0,320691.0,156624.0,288318.0
189183.0,320645.0,156642.0,288321.0
189136.0,320607.0,156585.0,288277.0
189144.0,320585.0,156598.0,288262.0
189139.0,320570.0,156576.0,288215.0
189091.0,320580.0,156555.0,288238.0
189111.0,320553.0,156559.0,288230.0
189060.0,320558.0,156547.0,288224.0
189095.0,320488.0,156551.0,288229.0
189092.0,320498.0,156561.0,288202.0
189063.0,320499.0,156544.0,288188.0
189056.0,320491.0,156549.0,288224.0
189032.0,320451.0,156540.0,288200.0
189034.0,320450.0,156503.0,288167.0
189014.0,320465.0,156523.0,288189.0
189015.0,320392.0,156532.0,288161.0
189015.0,320399.0,156506.0,288171.0
189016.0,320392.0,156496.0,288157.0
188999.0,320391.0,156492.0,288148.0
188994.0,320354.0,156467.0,288160.0
188996.0,320368.0,156466.0,288134.0
188972.0,320313.0,156481.0,288148.0
188976.0,320294.0,156480.0,288138.0
188941.0,320284.0,156489.0,288129.0
188959.0,320283.0,156472.0,288146.0
188960.0,320317.0,156460.0,288149.0
188992.0,320351.0,156435.0,288139.0
188972.0,320414.0,156449.0,288171.0
188990.0,320444.0,156479.0,288157.0
188996.0,320506.0,156462.0,288167.0
189008.0,320474.0,156447.0,288176.0
189030.0,320504.0,156453.0,288228.0
189025.0,320539.0,156487.0,288191.0
189060.0,320590.0,156453.0,288202.0
189075.0,320638.0,156482.0,288281.0
189050.0,320662.0,156467.0,288248.0
189095.0,320666.0,156473.0,288255.0
189131.0,320753.0,156456.0,288226.0
189116.0,320746.0,156453.0,288243.0
189149.0,320775.0,156452.0,288209.0
189124.0,320786.0,156454.0,288238.0
189130.0,320815.0,156416.0,288250.0
189137.0,320847.0,156460.0,288268.0
189154.0,320812.0,156455.0,288271.0
189156.0,320847.0,156444.0,288282.0
189158.0,320857.0,156446.0,288237.0
189136.0,320827.0,156441.0,288246.0
189141.0,320831.0,156430.0,288268.0
189132.0,320787.0,156414.0,288304.0
189143.0,320808.0,156439.0,288251.0
189153.0,320797.0,156433.0,288261.0
189111.0,320815.0,156447.0,288262.0
189145.0,320756.0,156437.0,288289.0
189122.0,320776.0,156446.0,288267.0
189106.0,320764.0,156456.0,288235.0
189115.0,320753.0,156428.0,288241.0
189105.0,320742.0,156431.0,288224.0
189107.0,320735.0,156435.0,288257.0
189072.0,320714.0,156419.0,288246.0
189095.0,320730.0,156431.0,288201.0
189071.0,320719.0,156426.0,288211.0
189062.0,320688.0,156410.0,288212.0
189078.0,320689.0,156396.0,288222.0
189082.0,320717.0,156393.0,288222.0
189054.0,320673.0,156408.0,288232.0
189062.0,320668.0,156418.0,288277.0
189035.0,320688.0,156412.0,288258.0
189027.0,320619.0,156428.0,288284.0
188997.0,320591.0,156403.0,288249.0
188992.0,320604.0,156425.0,288259.0
188992.0,320567.0,156419.0,288237.0
188973.0,320529.0,156409.0,288236.0
188977.0,320514.0,156390.0,288224.0
188929.0,320481.0,156375.0,288234.0
188938.0,320438.0,156389.0,288264.0
188931.0,320418.0,156399.0,288222.0
188911.0,320436.0,156387.0,288219.0
188907.0,320355.0,156389.0,288223.0
188886.0,320311.0,156391.0,288262.0
188856.0,320245.0,156389.0,288186.0
188820.0,320126.0,156388.0,288163.0
188721.0,320035.0,156377.0,288176.0
188699.0,319951.0,156395.0,288141.0
188661.0,319803.0,156358.0,288138.0
188586.0,319705.0,156378.0,288095.0
188519.0,319602.0,156400.0,288151.0
188472.0,319499.0,156371.0,288135.0
188408.0,319368.0,156381.0,288155.0
188344.0,319295.0,156395.0,288155.0
188301.0,319145.0,156387.0,288126.0
188267.0,319054.0,156401.0,288119.0
188209.0,318956.0,156386.0,288073.0
188136.0,318886.0,156370.0,288061.0
188102.0,318810.0,156383.0,288041.0
188071.0,318719.0,156343.0,288028.0
188048.0,318656.0,156364.0,288003.0
188017.0,318604.0,156328.0,287982.0
188012.0,318558.0,156333.0,287960.0
187954.0,318484.0,156355.0,287918.0
187922.0,318430.0,156326.0,287909.0
187907.0,318350.0,156313.0,287876.0
