169711.0,284310.0,147170.0,274830.0
169786.0,284573.0,147305.0,274931.0
169885.0,284743.0,147488.0,274890.0
169995.0,284874.0,147647.0,274908.0
170041.0,285041.0,147726.0,274909.0
170123.0,285193.0,147734.0,274917.0
170195.0,285335.0,147776.0,274717.0
170253.0,285473.0,147765.0,274646.0
170308.0,285588.0,147734.0,274604.0
170361.0,285764.0,147696.0,274495.0
170431.0,285869.0,147656.0,274399.0
170484.0,285989.0,147585.0,274284.0
170532.0,286064.0,147543.0,274171.0
170542.0,286203.0,147528.0,274138.0
170570.0,286277.0,147498.0,274097.0
170618.0,286368.0,147488.0,274000.0
170639.0,286489.0,147442.0,274034.0
170672.0,286549.0,147428.0,274040.0
170683.0,286659.0,147432.0,274081.0
170729.0,286769.0,147442.0,274092.0
170739.0,286831.0,147437.0,274170.0
170796.0,286947.0,147479.0,274182.0
170828.0,287051.0,147492.0,274301.0
170870.0,287156.0,147543.0,274392.0
170909.0,287268.0,147587.0,274545.0
170948.0,287329.0,147622.0,274642.0
170981.0,287471.0,147704.0,274752.0
171043.0,287568.0,147790.0,274859.0
171123.0,287660.0,147852.0,274958.0
171165.0,287785.0,147916.0,275108.0
171262.0,287872.0,148004.0,275213.0
171326.0,288045.0,148078.0,275322.0
171385.0,288182.0,148195.0,275453.0
171488.0,288301.0,148231.0,275526.0
171551.0,288403.0,148298.0,275635.0
171621.0,288566.0,148345.0,275712.0
171694.0,288709.0,148368.0,275807.0
171778.0,288831.0,148444.0,275859.0
171871.0,288955.0,148490.0,275855.0
171956.0,289097.0,148530.0,275906.0
172020.0,289259.0,148535.0,275943.0
172088.0,289346.0,148531.0,275955.0
172139.0,289499.0,148564.0,275960.0
172220.0,289630.0,148536.0,275950.0
172294.0,289711.0,148566.0,275933.0
172362.0,289876.0,148544.0,275949.0
172397.0,289988.0,148582.0,275967.0
172471.0,290132.0,148611.0,275950.0
172522.0,290232.0,148639.0,276018.0
172575.0,290336.0,148652.0,276076.0
172653.0,290435.0,148641.0,276107.0
172739.0,290537.0,148636.0,276126.0
172777.0,290618.0,148618.0,276137.0
172776.0,290730.0,148590.0,276152.0
172843.0,290843.0,148557.0,276164.0
172851.0,290885.0,148559.0,276186.0
172898.0,290966.0,148532.0,276217.0
172970.0,291040.0,148521.0,276247.0
172999.0,291102.0,148515.0,276261.0
173044.0,291250.0,148488.0,276289.0
173087.0,291326.0,148492.0,276336.0
173153.0,291395.0,148497.0,276335.0
173203.0,291499.0,148530.0,276351.0
173239.0,291610.0,148526.0,276389.0
173297.0,291695.0,148544.0,276435.0
173377.0,291760.0,148557.0,276459.0
173428.0,291883.0,148583.0,276535.0
173452.0,291971.0,148600.0,276536.0
173523.0,292061.0,148618.0,276580.0
173576.0,292192.0,148626.0,276592.0
173612.0,292253.0,148649.0,276623.0
173691.0,292374.0,148698.0,276638.0
173723.0,292453.0,148737.0,276677.0
173766.0,292514.0,148748.0,276700.0
173805.0,292602.0,148775.0,276696.0
173860.0,292675.0,148817.0,276752.0
173902.0,292680.0,148837.0,276744.0
173949.0,292760.0,148849.0,276748.0
173960.0,292775.0,148835.0,276749.0
173965.0,292774.0,148885.0,276770.0
173989.0,292815.0,148884.0,276784.0
173996.0,292850.0,148886.0,276753.0
173995.0,292846.0,148892.0,276777.0
174000.0,292816.0,148908.0,276736.0
174001.0,292897.0,148921.0,276769.0
173955.0,292919.0,148903.0,276724.0
173995.0,292889.0,148940.0,276764.0
174041.0,292901.0,148965.0,276776.0
174004.0,292922.0,148987.0,276777.0
173992.0,292988.0,148956.0,276773.0
174003.0,293037.0,148957.0,276854.0
174021.0,293060.0,148956.0,276851.0
174039.0,293127.0,148986.0,276893.0
174054.0,293207.0,149008.0,276979.0
174109.0,293264.0,149024.0,277027.0
174135.0,293379.0,149054.0,277094.0
174198.0,293467.0,149081.0,277090.0
174231.0,293533.0,149138.0,277124.0
174259.0,293654.0,149121.0,277093.0
174313.0,293758.0,149105.0,277126.0
174378.0,293845.0,149173.0,277139.0
174417.0,293937.0,149125.0,277039.0
174463.0,294008.0,149100.0,277116.0
174553.0,294094.0,149099.0,277107.0
174611.0,294219.0,149075.0,277057.0
174644.0,294331.0,149062.0,277059.0
174685.0,294364.0,149027.0,276998.0
174733.0,294441.0,149018.0,276941.0
174775.0,294529.0,148990.0,276930.0
174823.0,294607.0,148938.0,276863.0
174895.0,294687.0,148937.0,276772.0
174930.0,294827.0,148942.0,276744.0
174995.0,294930.0,148888.0,276752.0
175056.0,295024.0,148858.0,276696.0
175152.0,295128.0,148858.0,276662.0
175178.0,295226.0,148848.0,276620.0
175261.0,295376.0,148837.0,276622.0
175309.0,295445.0,148793.0,276586.0
175380.0,295544.0,148807.0,276562.0
175456.0,295666.0,148813.0,276525.0
175502.0,295758.0,148762.0,276514.0
175577.0,295854.0,148756.0,276461.0
175613.0,295929.0,148745.0,276422.0
175644.0,296050.0,148746.0,276391.0
175707.0,296168.0,148716.0,276398.0
175765.0,296183.0,148703.0,276335.0
175811.0,296310.0,148691.0,276325.0
175858.0,296317.0,148668.0,276280.0
175870.0,296362.0,148669.0,276233.0
175911.0,296492.0,148637.0,276190.0
175929.0,296481.0,148610.0,276222.0
175959.0,296557.0,148586.0,276168.0
175988.0,296598.0,148562.0,276153.0
176056.0,296661.0,148520.0,276144.0
176081.0,296726.0,148489.0,276110.0
176118.0,296789.0,148468.0,276131.0
176186.0,296843.0,148422.0,276105.0
176241.0,296928.0,148409.0,276080.0
176323.0,297008.0,148388.0,276071.0
176373.0,297100.0,148328.0,276036.0
176426.0,297178.0,148309.0,275964.0
176461.0,297194.0,148246.0,275927.0
176474.0,297287.0,148248.0,275867.0
176504.0,297320.0,148179.0,275866.0
176537.0,297339.0,148172.0,275870.0
176575.0,297375.0,148123.0,275884.0
176572.0,297418.0,148156.0,275871.0
176622.0,297449.0,148108.0,275899.0
176608.0,297495.0,148101.0,275886.0
176631.0,297474.0,148095.0,275838.0
176646.0,297513.0,148076.0,275862.0
176699.0,297548.0,148081.0,275821.0
176679.0,297604.0,148080.0,275846.0
176723.0,297614.0,148033.0,275783.0
176699.0,297643.0,148030.0,275769.0
176767.0,297646.0,148018.0,275746.0
176773.0,297637.0,148000.0,275754.0
176775.0,297658.0,147998.0,275758.0
176768.0,297676.0,147984.0,275753.0
176805.0,297696.0,147985.0,275744.0
176835.0,297743.0,147979.0,275714.0
176864.0,297797.0,147949.0,275693.0
176907.0,297839.0,147920.0,275679.0
176941.0,297876.0,147915.0,275636.0
176948.0,297916.0,147883.0,275648.0
176945.0,297946.0,147874.0,275631.0
176991.0,298001.0,147869.0,275653.0
177030.0,298025.0,147863.0,275636.0
177027.0,298030.0,147846.0,275592.0
177050.0,298041.0,147863.0,275626.0
177098.0,298073.0,147861.0,275599.0
177103.0,298111.0,147830.0,275600.0
177158.0,298150.0,147835.0,275600.0
177157.0,298146.0,147828.0,275586.0
177164.0,298164.0,147808.0,275573.0
177171.0,298137.0,147822.0,275549.0
177212.0,298202.0,147788.0,275525.0
177189.0,298196.0,147808.0,275540.0
177213.0,298186.0,147802.0,275504.0
177198.0,298174.0,147807.0,275485.0
177203.0,298139.0,147765.0,275446.0
177133.0,298119.0,147783.0,275401.0
177084.0,298063.0,147751.0,275376.0
177051.0,298016.0,147762.0,275391.0
177006.0,297989.0,147794.0,275408.0
176994.0,297908.0,147780.0,275413.0
176930.0,297856.0,147852.0,275506.0
176876.0,297791.0,147906.0,275613.0
176830.0,297722.0,147980.0,275759.0
176796.0,297723.0,148045.0,275791.0
176763.0,297676.0,148089.0,275899.0
176748.0,297647.0,148088.0,275883.0
176770.0,297661.0,148133.0,275881.0
176746.0,297665.0,148123.0,275923.0
176736.0,297677.0,148107.0,275926.0
176745.0,297673.0,148157.0,275949.0
176781.0,297704.0,148155.0,275931.0
176762.0,297739.0,148147.0,275947.0
176804.0,297748.0,148159.0,275975.0
176804.0,297777.0,148138.0,276010.0
176846.0,297787.0,148158.0,275992.0
176848.0,297879.0,148186.0,275978.0
176899.0,297954.0,148147.0,275941.0
176926.0,297985.0,148156.0,275955.0
176964.0,298015.0,148175.0,275987.0
176959.0,298015.0,148158.0,275959.0
176935.0,298058.0,148088.0,275966.0
176971.0,298093.0,148102.0,275921.0
177014.0,298084.0,148114.0,275912.0
177014.0,298148.0,148075.0,275899.0
177042.0,298153.0,148076.0,275890.0
177079.0,298192.0,148083.0,275888.0
177085.0,298233.0,148080.0,275889.0
177083.0,298194.0,148049.0,275885.0
177106.0,298248.0,148046.0,275863.0
177092.0,298239.0,148043.0,275863.0
177081.0,298195.0,148014.0,275851.0
177100.0,298213.0,148020.0,275855.0
177083.0,298241.0,148027.0,275879.0
177085.0,298219.0,148027.0,275841.0
177091.0,298208.0,147988.0,275839.0
177084.0,298241.0,147990.0,275851.0
177090.0,298212.0,148007.0,275832.0
177107.0,298235.0,147971.0,275817.0
177111.0,298241.0,147997.0,275805.0
177143.0,298247.0,147988.0,275825.0
177140.0,298275.0,147973.0,275826.0
177175.0,298321.0,147972.0,275798.0
177184.0,298346.0,147968.0,275822.0
177204.0,298320.0,147947.0,275802.0
177216.0,298357.0,147968.0,275810.0
177215.0,298357.0,147961.0,275784.0
177232.0,298381.0,147934.0,275784.0
177258.0,298401.0,147963.0,275766.0
177246.0,298409.0,147923.0,275786.0
177244.0,298396.0,147939.0,275750.0
177292.0,298397.0,147930.0,275765.0
177282.0,298440.0,147914.0,275713.0
177264.0,298436.0,147923.0,275707.0
177277.0,298443.0,147901.0,275723.0
177268.0,298407.0,147885.0,275705.0
177260.0,298412.0,147902.0,275730.0
177278.0,298443.0,147922.0,275732.0
177263.0,298418.0,147950.0,275798.0
177281.0,298442.0,147939.0,275798.0
177272.0,298448.0,147959.0,275861.0
177282.0,298486.0,147967.0,275844.0
177310.0,298470.0,147951.0,275859.0
177323.0,298502.0,147991.0,275903.0
177329.0,298539.0,148023.0,275975.0
177333.0,298579.0,148034.0,276010.0
177364.0,298571.0,148059.0,276058.0
177351.0,298644.0,148071.0,276079.0
177388.0,298668.0,148091.0,276071.0
177433.0,298700.0,148115.0,276083.0
177427.0,298769.0,148126.0,276122.0
177486.0,298768.0,148139.0,276167.0
177468.0,298838.0,148133.0,276173.0
177522.0,298810.0,148183.0,276175.0
177524.0,298862.0,148194.0,276175.0
177552.0,298874.0,148185.0,276204.0
177560.0,298951.0,148188.0,276214.0
177585.0,299004.0,148221.0,276210.0
177583.0,299061.0,148194.0,276227.0
177622.0,299097.0,148232.0,276240.0
177649.0,299131.0,148223.0,276238.0
177650.0,299136.0,148258.0,276322.0
177673.0,299208.0,148224.0,276339.0
177711.0,299219.0,148271.0,276324.0
177728.0,299293.0,148247.0,276349.0
177744.0,299349.0,148271.0,276401.0
177777.0,299374.0,148315.0,276420.0
177802.0,299442.0,148332.0,276444.0
177826.0,299476.0,148336.0,276497.0
177858.0,299528.0,148346.0,276549.0
177861.0,299556.0,148343.0,276575.0
177868.0,299612.0,148372.0,276642.0
177905.0,299611.0,148406.0,276679.0
177918.0,299629.0,148401.0,276714.0
177926.0,299687.0,148439.0,276808.0
177933.0,299717.0,148433.0,276851.0
177953.0,299703.0,148482.0,276876.0
177942.0,299734.0,148519.0,276954.0
177984.0,299770.0,148554.0,276997.0
177988.0,299822.0,148542.0,277026.0
177976.0,299800.0,148580.0,277112.0
178004.0,299862.0,148631.0,277129.0
177995.0,299888.0,148601.0,277166.0
178024.0,299940.0,148607.0,277243.0
178057.0,299979.0,148668.0,277275.0
178058.0,300034.0,148719.0,277368.0
178075.0,300081.0,148711.0,277428.0
178108.0,300187.0,148742.0,277503.0
178123.0,300225.0,148753.0,277536.0
178177.0,300291.0,148806.0,277596.0
178234.0,300410.0,148825.0,277666.0
178296.0,300491.0,148829.0,277699.0
178319.0,300597.0,148859.0,277712.0
178382.0,300659.0,148854.0,277742.0
178444.0,300769.0,148849.0,277776.0
178496.0,300893.0,148864.0,277774.0
178551.0,300984.0,148868.0,277788.0
178625.0,301042.0,148857.0,277820.0
178652.0,301106.0,148894.0,277820.0
178737.0,301263.0,148900.0,277801.0
178812.0,301366.0,148902.0,277825.0
178878.0,301517.0,148903.0,277825.0
178948.0,301613.0,148905.0,277829.0
178995.0,301724.0,148916.0,277871.0
179043.0,301806.0,148923.0,277870.0
179110.0,301884.0,148911.0,277887.0
179150.0,301967.0,148919.0,277863.0
179200.0,302064.0,148947.0,277886.0
179262.0,302084.0,148958.0,277890.0
179297.0,302176.0,148973.0,277884.0
179292.0,302243.0,148971.0,277917.0
179339.0,302286.0,148972.0,277891.0
179342.0,302322.0,148977.0,277913.0
179361.0,302336.0,148982.0,277922.0
179382.0,302362.0,148988.0,277969.0
179414.0,302378.0,148985.0,277962.0
179423.0,302372.0,149021.0,277966.0
179430.0,302409.0,149009.0,277980.0
179452.0,302416.0,149033.0,277974.0
179470.0,302439.0,149014.0,277995.0
179452.0,302500.0,149011.0,277996.0
179497.0,302501.0,149037.0,277988.0
179498.0,302474.0,149041.0,277984.0
179524.0,302524.0,149028.0,277991.0
179488.0,302529.0,149049.0,278010.0
179516.0,302561.0,149040.0,278017.0
179510.0,302537.0,149047.0,277992.0
179519.0,302584.0,149062.0,278042.0
179544.0,302586.0,149098.0,278013.0
179571.0,302626.0,149113.0,278018.0
179561.0,302616.0,149107.0,278083.0
179573.0,302678.0,149112.0,278058.0
179600.0,302651.0,149119.0,278065.0
179587.0,302727.0,149143.0,278090.0
179611.0,302713.0,149136.0,278147.0
179621.0,302813.0,149143.0,278144.0
179622.0,302785.0,149195.0,278172.0
179640.0,302829.0,149189.0,278188.0
179678.0,302886.0,149210.0,278232.0
179688.0,302912.0,149212.0,278225.0
179696.0,302955.0,149179.0,278221.0
179689.0,303021.0,149208.0,278278.0
179715.0,303009.0,149198.0,278249.0
179755.0,303059.0,149169.0,278273.0
179769.0,303102.0,149154.0,278291.0
179793.0,303112.0,149163.0,278281.0
179816.0,303166.0,149127.0,278284.0
179818.0,303212.0,149129.0,278295.0
179873.0,303221.0,149112.0,278312.0
179892.0,303271.0,149128.0,278286.0
179929.0,303262.0,149127.0,278284.0
179907.0,303322.0,149127.0,278244.0
179906.0,303304.0,149142.0,278203.0
179946.0,303312.0,149165.0,278234.0
179989.0,303391.0,149172.0,278216.0
179989.0,303358.0,149171.0,278206.0
179992.0,303397.0,149206.0,278205.0
180013.0,303383.0,149222.0,278212.0
180027.0,303330.0,149257.0,278206.0
180014.0,303321.0,149246.0,278196.0
180016.0,303292.0,149266.0,278205.0
179989.0,303283.0,149274.0,278131.0
179963.0,303266.0,149278.0,278150.0
179955.0,303227.0,149268.0,278138.0
179974.0,303204.0,149288.0,278101.0
179935.0,303161.0,149279.0,278094.0
179959.0,303077.0,149252.0,278093.0
179912.0,303089.0,149274.0,278066.0
179900.0,303074.0,149252.0,278076.0
179891.0,303089.0,149265.0,278065.0
179894.0,303099.0,149239.0,278039.0
179884.0,303075.0,149251.0,278019.0
179874.0,303046.0,149248.0,278020.0
179888.0,303040.0,149240.0,277990.0
179881.0,303005.0,149213.0,277978.0
179855.0,302996.0,149211.0,277993.0
179875.0,303011.0,149209.0,277996.0
179857.0,303030.0,149173.0,277991.0
179863.0,303036.0,149162.0,277963.0
179866.0,303003.0,149153.0,277965.0
179911.0,302995.0,149172.0,277940.0
179887.0,303019.0,149138.0,277957.0
179881.0,303051.0,149138.0,277926.0
179864.0,303004.0,149117.0,277921.0
179899.0,303047.0,149119.0,277939.0
179903.0,303060.0,149129.0,277936.0
179882.0,303050.0,149129.0,277933.0
179899.0,303055.0,149115.0,277901.0
179909.0,303033.0,149093.0,277915.0
179894.0,303009.0,149091.0,277889.0
179886.0,303027.0,149089.0,277909.0
179908.0,303006.0,149104.0,277886.0
179883.0,302985.0,149119.0,277870.0
179872.0,302949.0,149132.0,277859.0
179856.0,302934.0,149109.0,277828.0
179866.0,302923.0,149114.0,277825.0
179846.0,302897.0,149112.0,277858.0
179840.0,302892.0,149095.0,277828.0
179839.0,302875.0,149103.0,277825.0
179846.0,302827.0,149106.0,277782.0
179829.0,302834.0,149097.0,277799.0
179805.0,302855.0,149076.0,277826.0
179811.0,302791.0,149074.0,277769.0
179807.0,302776.0,149089.0,277755.0
179800.0,302808.0,149068.0,277753.0
179800.0,302752.0,149057.0,277795.0
179812.0,302753.0,149046.0,277785.0
179798.0,302761.0,149057.0,277751.0
179816.0,302743.0,149019.0,277759.0
179794.0,302771.0,148975.0,277717.0
179802.0,302764.0,149004.0,277716.0
179775.0,302752.0,148973.0,277731.0
179788.0,302762.0,148975.0,277717.0
179804.0,302727.0,148994.0,277682.0
179797.0,302765.0,148996.0,277659.0
179827.0,302766.0,148985.0,277712.0
179810.0,302745.0,148958.0,277684.0
179795.0,302814.0,148940.0,277684.0
179833.0,302756.0,148966.0,277698.0
179812.0,302809.0,148947.0,277680.0
179838.0,302800.0,148932.0,277686.0
179861.0,302808.0,148956.0,277673.0
179834.0,302803.0,148926.0,277675.0
179853.0,302809.0,148940.0,277654.0
179862.0,302831.0,148934.0,277653.0
179855.0,302854.0,148933.0,277641.0
179890.0,302836.0,148916.0,277662.0
179889.0,302826.0,148909.0,277623.0
179869.0,302849.0,148909.0,277687.0
179892.0,302844.0,148917.0,277669.0
179892.0,302850.0,148954.0,277655.0
179885.0,302866.0,148945.0,277679.0
179871.0,302792.0,148928.0,277664.0
179865.0,302770.0,148943.0,277643.0
179817.0,302658.0,148908.0,277632.0
179797.0,302604.0,148927.0,277603.0
179759.0,302566.0,148942.0,277629.0
179717.0,302504.0,148940.0,277582.0
179703.0,302403.0,148936.0,277629.0
179661.0,302338.0,148925.0,277570.0
179624.0,302265.0,148927.0,277569.0
179579.0,302182.0,148918.0,277543.0
179547.0,302117.0,148911.0,277550.0
179518.0,302005.0,148904.0,277522.0
179492.0,301972.0,148862.0,277561.0
179432.0,301923.0,148859.0,277505.0
179399.0,301860.0,148839.0,277534.0
179399.0,301830.0,148821.0,277495.0
179352.0,301762.0,148803.0,277510.0
179334.0,301753.0,148782.0,277487.0
179325.0,301702.0,148794.0,277483.0
179265.0,301631.0,148779.0,277488.0
179272.0,301641.0,148771.0,277484.0
179239.0,301622.0,148754.0,277477.0
179228.0,301620.0,148725.0,277491.0
179218.0,301619.0,148738.0,277411.0
179241.0,301596.0,148718.0,277468.0
179206.0,301598.0,148698.0,277426.0
179197.0,301543.0,148717.0,277430.0
179180.0,301557.0,148722.0,277453.0
179166.0,301561.0,148694.0,277467.0
179164.0,301564.0,148691.0,277488.0
179162.0,301567.0,148713.0,277464.0
179126.0,301537.0,148687.0,277459.0
179149.0,301558.0,148727.0,277458.0
179133.0,301518.0,148729.0,277459.0
179108.0,301507.0,148704.0,277496.0
179104.0,301494.0,148683.0,277477.0
179124.0,301498.0,148695.0,277483.0
179083.0,301441.0,148706.0,277460.0
179091.0,301491.0,148684.0,277476.0
179065.0,301459.0,148677.0,277456.0
179051.0,301399.0,148679.0,277466.0
179048.0,301357.0,148689.0,277460.0
179038.0,301401.0,148670.0,277466.0
179023.0,301379.0,148685.0,277523.0
179024.0,301386.0,148699.0,277497.0
179027.0,301401.0,148722.0,277514.0
179037.0,301436.0,148725.0,277542.0
179052.0,301462.0,148763.0,277518.0
179063.0,301475.0,148766.0,277520.0
179095.0,301494.0,148736.0,277480.0
179100.0,301509.0,148760.0,277534.0
179133.0,301546.0,148795.0,277542.0
179107.0,301600.0,148770.0,277577.0
179149.0,301583.0,148808.0,277544.0
179165.0,301585.0,148830.0,277599.0
179149.0,301653.0,148833.0,277615.0
179182.0,301680.0,148860.0,277585.0
179175.0,301666.0,148850.0,277628.0
179185.0,301696.0,148842.0,277614.0
179202.0,301696.0,148859.0,277641.0
179244.0,301708.0,148867.0,277656.0
179235.0,301739.0,148863.0,277637.0
179252.0,301750.0,148859.0,277654.0
179276.0,301805.0,148852.0,277671.0
179278.0,301818.0,148861.0,277712.0
179281.0,301848.0,148865.0,277688.0
179324.0,301816.0,148849.0,277686.0
