49274.0,117645.0,96346.0,249347.0
49263.0,117728.0,96392.0,249464.0
49266.0,117787.0,96439.0,249597.0
49261.0,117880.0,96476.0,249755.0
49252.0,117957.0,96527.0,249847.0
49265.0,117989.0,96558.0,249888.0
49271.0,118042.0,96571.0,249951.0
49285.0,118070.0,96606.0,250015.0
49319.0,118103.0,96643.0,250094.0
49322.0,118214.0,96674.0,250167.0
49370.0,118302.0,96708.0,250251.0
49391.0,118434.0,96770.0,250286.0
49416.0,118522.0,96784.0,250299.0
49443.0,118576.0,96798.0,250382.0
49456.0,118583.0,96817.0,250406.0
49472.0,118575.0,96883.0,250564.0
49469.0,118541.0,96930.0,250647.0
49480.0,118535.0,96982.0,250740.0
49491.0,118586.0,97034.0,250798.0
49514.0,118638.0,97092.0,250821.0
49539.0,118658.0,97138.0,250904.0
49545.0,118676.0,97191.0,250946.0
49546.0,118661.0,97214.0,251011.0
49528.0,118626.0,97236.0,251087.0
49516.0,118593.0,97265.0,251132.0
49515.0,118566.0,97265.0,251154.0
49506.0,118518.0,97257.0,251149.0
49509.0,118546.0,97269.0,251180.0
49513.0,118552.0,97309.0,251171.0
49499.0,118568.0,97311.0,251187.0
49489.0,118562.0,97301.0,251218.0
49511.0,118561.0,97347.0,251265.0
49493.0,118589.0,97336.0,251297.0
49508.0,118599.0,97344.0,251277.0
49522.0,118627.0,97373.0,251292.0
49521.0,118687.0,97368.0,251337.0
49514.0,118696.0,97378.0,251326.0
49512.0,118631.0,97370.0,251383.0
49498.0,118582.0,97376.0,251434.0
49486.0,118581.0,97383.0,251461.0
49484.0,118576.0,97383.0,251459.0
49488.0,118564.0,97374.0,251482.0
49499.0,118549.0,97364.0,251426.0
49466.0,118576.0,97320.0,251428.0
49488.0,118569.0,97318.0,251435.0
49496.0,118559.0,97314.0,251389.0
49480.0,118539.0,97289.0,251393.0
49475.0,118532.0,97311.0,251371.0
49478.0,118527.0,97321.0,251387.0
49473.0,118519.0,97318.0,251420.0
49477.0,118549.0,97302.0,251449.0
49485.0,118557.0,97305.0,251436.0
49495.0,118608.0,97306.0,251397.0
49498.0,118598.0,97308.0,251389.0
49509.0,118649.0,97317.0,251373.0
49504.0,118651.0,97324.0,251362.0
49503.0,118675.0,97297.0,251394.0
49529.0,118683.0,97335.0,251427.0
49512.0,118664.0,97351.0,251480.0
49512.0,118626.0,97373.0,251621.0
49482.0,118613.0,97383.0,251711.0
49479.0,118526.0,97415.0,251831.0
49452.0,118461.0,97408.0,251904.0
49420.0,118382.0,97421.0,251946.0
49389.0,118297.0,97420.0,251996.0
49369.0,118207.0,97414.0,252043.0
49344.0,118154.0,97426.0,252012.0
49339.0,118132.0,97421.0,252079.0
49325.0,118110.0,97420.0,252104.0
49306.0,118077.0,97429.0,252127.0
49302.0,118066.0,97438.0,252178.0
49284.0,117987.0,97428.0,252127.0
49257.0,117915.0,97433.0,252107.0
49248.0,117868.0,97376.0,252120.0
49211.0,117833.0,97377.0,252129.0
49212.0,117782.0,97373.0,252129.0
49196.0,117750.0,97361.0,252127.0
49187.0,117697.0,97382.0,252084.0
49157.0,117655.0,97367.0,252144.0
49146.0,117620.0,97350.0,252141.0
49148.0,117559.0,97342.0,252114.0
49108.0,117516.0,97346.0,252109.0
49095.0,117476.0,97327.0,252095.0
49085.0,117446.0,97316.0,252060.0
49081.0,117405.0,97298.0,252041.0
49065.0,117367.0,97284.0,251987.0
49057.0,117326.0,97287.0,251964.0
49032.0,117246.0,97251.0,251906.0
48985.0,117170.0,97255.0,251874.0
48961.0,117061.0,97235.0,251821.0
48936.0,116984.0,97223.0,251820.0
48918.0,116914.0,97203.0,251791.0
48888.0,116801.0,97211.0,251751.0
48860.0,116721.0,97188.0,251708.0
48834.0,116668.0,97161.0,251680.0
48811.0,116617.0,97161.0,251694.0
48813.0,116581.0,97173.0,251681.0
48794.0,116554.0,97171.0,251662.0
48801.0,116539.0,97155.0,251650.0
48804.0,116545.0,97171.0,251673.0
48802.0,116541.0,97172.0,251660.0
48812.0,116536.0,97166.0,251649.0
48777.0,116478.0,97150.0,251632.0
48765.0,116446.0,97151.0,251648.0
48752.0,116420.0,97121.0,251615.0
48741.0,116387.0,97113.0,251591.0
48732.0,116372.0,97118.0,251568.0
48735.0,116378.0,97123.0,251536.0
48736.0,116369.0,97122.0,251527.0
48722.0,116376.0,97121.0,251516.0
48733.0,116390.0,97119.0,251517.0
48745.0,116415.0,97105.0,251486.0
48746.0,116424.0,97120.0,251490.0
48759.0,116454.0,97117.0,251505.0
48757.0,116498.0,97135.0,251475.0
48772.0,116531.0,97148.0,251454.0
48767.0,116553.0,97137.0,251471.0
48796.0,116581.0,97165.0,251474.0
48801.0,116610.0,97145.0,251474.0
48814.0,116627.0,97157.0,251469.0
48813.0,116653.0,97165.0,251504.0
48821.0,116682.0,97130.0,251490.0
48828.0,116698.0,97130.0,251520.0
48842.0,116717.0,97122.0,251485.0
48841.0,116710.0,97112.0,251496.0
48838.0,116716.0,97119.0,251479.0
48858.0,116754.0,97109.0,251486.0
48855.0,116782.0,97109.0,251519.0
48857.0,116807.0,97123.0,251464.0
48871.0,116833.0,97111.0,251505.0
48882.0,116862.0,97100.0,251489.0
48886.0,116892.0,97116.0,251496.0
48909.0,116921.0,97087.0,251472.0
48907.0,116938.0,97102.0,251467.0
48906.0,116952.0,97107.0,251475.0
48894.0,116941.0,97087.0,251503.0
48908.0,116923.0,97086.0,251455.0
48908.0,116930.0,97062.0,251471.0
48910.0,116915.0,97081.0,251457.0
48893.0,116919.0,97074.0,251511.0
48902.0,116936.0,97072.0,251482.0
48915.0,116969.0,97062.0,251537.0
48921.0,116969.0,97057.0,251475.0
48911.0,116943.0,97049.0,251463.0
48903.0,116912.0,96998.0,251475.0
48892.0,116900.0,97037.0,251444.0
48893.0,116938.0,97029.0,251438.0
48909.0,116930.0,97025.0,251455.0
48890.0,116943.0,97016.0,251476.0
48895.0,116979.0,97024.0,251449.0
48915.0,116976.0,97027.0,251464.0
48912.0,116984.0,97016.0,251449.0
48921.0,117020.0,97019.0,251463.0
48948.0,117013.0,97010.0,251450.0
48927.0,117040.0,97005.0,251446.0
48926.0,117067.0,97006.0,251451.0
48938.0,117055.0,96993.0,251367.0
48934.0,117061.0,96977.0,251379.0
48932.0,117052.0,96973.0,251347.0
48951.0,117046.0,96968.0,251309.0
48930.0,117049.0,96960.0,251291.0
48943.0,117026.0,96986.0,251291.0
48908.0,116995.0,96946.0,251242.0
48912.0,116956.0,96956.0,251242.0
48865.0,116900.0,96922.0,251237.0
48847.0,116842.0,96910.0,251226.0
48811.0,116770.0,96908.0,251209.0
48785.0,116690.0,96878.0,251168.0
48767.0,116654.0,96885.0,251123.0
48764.0,116599.0,96887.0,251150.0
48745.0,116556.0,96881.0,251155.0
48735.0,116548.0,96884.0,251132.0
48720.0,116528.0,96872.0,251142.0
48724.0,116498.0,96873.0,251173.0
48709.0,116487.0,96879.0,251174.0
48703.0,116468.0,96880.0,251152.0
48702.0,116477.0,96884.0,251175.0
48700.0,116457.0,96899.0,251174.0
48691.0,116467.0,96865.0,251190.0
48700.0,116482.0,96897.0,251210.0
48716.0,116524.0,96895.0,251207.0
48746.0,116588.0,96912.0,251232.0
48765.0,116640.0,96942.0,251272.0
48784.0,116729.0,96958.0,251237.0
48815.0,116786.0,96986.0,251298.0
48820.0,116827.0,97014.0,251283.0
48862.0,116910.0,97033.0,251323.0
48891.0,117009.0,97055.0,251358.0
48907.0,117080.0,97075.0,251379.0
48938.0,117144.0,97095.0,251404.0
48955.0,117210.0,97122.0,251371.0
48966.0,117279.0,97131.0,251380.0
48989.0,117310.0,97129.0,251393.0
48989.0,117356.0,97127.0,251435.0
48994.0,117391.0,97109.0,251406.0
49031.0,117421.0,97107.0,251473.0
49019.0,117407.0,97123.0,251480.0
49012.0,117389.0,97119.0,251520.0
49030.0,117403.0,97127.0,251515.0
49030.0,117425.0,97122.0,251553.0
49034.0,117433.0,97138.0,251579.0
49044.0,117456.0,97120.0,251554.0
49061.0,117487.0,97149.0,251581.0
49093.0,117572.0,97146.0,251625.0
49135.0,117668.0,97189.0,251636.0
49181.0,117803.0,97220.0,251635.0
49217.0,117933.0,97231.0,251711.0
49241.0,118037.0,97251.0,251725.0
49284.0,118125.0,97253.0,251758.0
49333.0,118234.0,97266.0,251789.0
49344.0,118321.0,97291.0,251860.0
49370.0,118392.0,97307.0,251848.0
49393.0,118464.0,97335.0,251921.0
49421.0,118517.0,97337.0,251982.0
49441.0,118567.0,97366.0,252007.0
49463.0,118626.0,97356.0,252055.0
49477.0,118640.0,97373.0,252048.0
49497.0,118682.0,97373.0,252098.0
49498.0,118694.0,97396.0,252087.0
49475.0,118721.0,97388.0,252108.0
49487.0,118727.0,97389.0,252164.0
49487.0,118729.0,97369.0,252122.0
49484.0,118733.0,97379.0,252128.0
49486.0,118762.0,97368.0,252108.0
49497.0,118788.0,97367.0,252152.0
49513.0,118799.0,97386.0,252127.0
49517.0,118868.0,97380.0,252146.0
49543.0,118923.0,97387.0,252131.0
49549.0,118959.0,97375.0,252146.0
49539.0,118985.0,97335.0,252141.0
49569.0,119034.0,97362.0,252091.0
49585.0,119087.0,97333.0,252081.0
49599.0,119088.0,97315.0,252031.0
49616.0,119082.0,97308.0,252004.0
49591.0,119090.0,97291.0,251985.0
49595.0,119084.0,97290.0,251941.0
49603.0,119077.0,97283.0,251896.0
49606.0,119080.0,97270.0,251911.0
49602.0,119078.0,97258.0,251899.0
49603.0,119077.0,97249.0,251906.0
49602.0,119046.0,97238.0,251860.0
49581.0,119038.0,97215.0,251827.0
49593.0,119020.0,97207.0,251792.0
49583.0,119016.0,97174.0,251796.0
49594.0,119019.0,97193.0,251774.0
49594.0,119041.0,97158.0,251758.0
49586.0,119044.0,97191.0,251748.0
49604.0,119041.0,97201.0,251771.0
49604.0,119075.0,97180.0,251762.0
49611.0,119095.0,97175.0,251743.0
49622.0,119118.0,97179.0,251743.0
49627.0,119154.0,97159.0,251759.0
49644.0,119147.0,97190.0,251759.0
49644.0,119197.0,97183.0,251750.0
49641.0,119202.0,97150.0,251744.0
49658.0,119224.0,97152.0,251776.0
49677.0,119236.0,97153.0,251737.0
49679.0,119278.0,97163.0,251759.0
49677.0,119322.0,97148.0,251729.0
49682.0,119319.0,97135.0,251713.0
49690.0,119307.0,97134.0,251725.0
49689.0,119314.0,97122.0,251706.0
49669.0,119298.0,97116.0,251711.0
49665.0,119275.0,97098.0,251678.0
49674.0,119289.0,97085.0,251689.0
49662.0,119270.0,97077.0,251622.0
49668.0,119272.0,97057.0,251592.0
49662.0,119256.0,97045.0,251602.0
49651.0,119237.0,97023.0,251570.0
49620.0,119173.0,96992.0,251556.0
49599.0,119084.0,96979.0,251554.0
49541.0,118990.0,96965.0,251491.0
49499.0,118860.0,96903.0,251447.0
49443.0,118703.0,96895.0,251411.0
49394.0,118567.0,96834.0,251386.0
49356.0,118458.0,96787.0,251327.0
49326.0,118388.0,96805.0,251303.0
49303.0,118325.0,96779.0,251348.0
49278.0,118279.0,96789.0,251337.0
49292.0,118215.0,96806.0,251325.0
49257.0,118232.0,96779.0,251356.0
49255.0,118188.0,96775.0,251321.0
49225.0,118126.0,96758.0,251318.0
49172.0,118044.0,96739.0,251290.0
49163.0,117960.0,96732.0,251241.0
49135.0,117872.0,96709.0,251223.0
49099.0,117811.0,96692.0,251223.0
49070.0,117731.0,96662.0,251190.0
49049.0,117706.0,96657.0,251171.0
49054.0,117708.0,96641.0,251180.0
49051.0,117702.0,96654.0,251163.0
49063.0,117739.0,96659.0,251140.0
49073.0,117788.0,96662.0,251173.0
49088.0,117819.0,96685.0,251133.0
49094.0,117850.0,96657.0,251141.0
49106.0,117897.0,96673.0,251136.0
49114.0,117899.0,96647.0,251135.0
49135.0,117895.0,96658.0,251114.0
49119.0,117926.0,96626.0,251107.0
49133.0,117935.0,96641.0,251146.0
49111.0,117941.0,96636.0,251141.0
49057.0,117908.0,96624.0,251147.0
49073.0,117858.0,96637.0,251115.0
49047.0,117814.0,96602.0,251084.0
49028.0,117740.0,96587.0,251062.0
49014.0,117657.0,96564.0,250996.0
48949.0,117585.0,96533.0,250922.0
48922.0,117492.0,96520.0,250876.0
48887.0,117391.0,96501.0,250870.0
48867.0,117320.0,96528.0,250806.0
48848.0,117265.0,96526.0,250816.0
48819.0,117201.0,96534.0,250820.0
48798.0,117144.0,96523.0,250794.0
48774.0,117081.0,96505.0,250800.0
48741.0,117047.0,96504.0,250758.0
48757.0,117024.0,96487.0,250805.0
48748.0,117029.0,96497.0,250807.0
48762.0,117041.0,96515.0,250798.0
48762.0,117095.0,96524.0,250902.0
48789.0,117120.0,96533.0,250867.0
48802.0,117181.0,96542.0,250911.0
48812.0,117193.0,96535.0,250925.0
48825.0,117228.0,96552.0,250948.0
48818.0,117231.0,96546.0,250924.0
48831.0,117256.0,96525.0,250915.0
48837.0,117273.0,96534.0,250966.0
48849.0,117314.0,96530.0,250953.0
48862.0,117351.0,96529.0,250950.0
48877.0,117405.0,96537.0,251002.0
48913.0,117462.0,96529.0,250963.0
48936.0,117531.0,96525.0,250965.0
48964.0,117625.0,96538.0,250914.0
49002.0,117697.0,96519.0,250943.0
49056.0,117818.0,96515.0,250918.0
49133.0,118001.0,96535.0,250851.0
49218.0,118264.0,96521.0,250755.0
49333.0,118561.0,96555.0,250695.0
49437.0,118820.0,96543.0,250693.0
49526.0,119071.0,96585.0,250694.0
49608.0,119294.0,96600.0,250670.0
49676.0,119478.0,96600.0,250648.0
49712.0,119670.0,96618.0,250683.0
49762.0,119788.0,96603.0,250697.0
49819.0,119875.0,96619.0,250688.0
49841.0,119990.0,96623.0,250699.0
49871.0,120057.0,96637.0,250748.0
49893.0,120119.0,96633.0,250729.0
49904.0,120135.0,96643.0,250785.0
49898.0,120156.0,96654.0,250803.0
49914.0,120183.0,96636.0,250824.0
49931.0,120215.0,96666.0,250865.0
49940.0,120216.0,96666.0,250904.0
49920.0,120231.0,96692.0,250919.0
49924.0,120208.0,96705.0,250955.0
49921.0,120205.0,96708.0,250973.0
49901.0,120213.0,96688.0,250984.0
49914.0,120206.0,96684.0,251011.0
49899.0,120203.0,96702.0,251028.0
49892.0,120179.0,96693.0,251069.0
49891.0,120142.0,96667.0,251040.0
49900.0,120143.0,96684.0,251011.0
49866.0,120132.0,96679.0,251039.0
49886.0,120090.0,96661.0,251005.0
49838.0,120103.0,96667.0,251056.0
49866.0,120063.0,96682.0,251035.0
49905.0,120021.0,96673.0,251047.0
49852.0,120042.0,96671.0,251084.0
49861.0,120040.0,96673.0,251118.0
49861.0,120060.0,96673.0,251103.0
49863.0,120055.0,96696.0,251138.0
49883.0,120079.0,96688.0,251171.0
49860.0,120076.0,96690.0,251196.0
49878.0,120087.0,96692.0,251189.0
49891.0,120100.0,96698.0,251184.0
49896.0,120104.0,96703.0,251149.0
49887.0,120137.0,96691.0,251150.0
49909.0,120156.0,96658.0,251070.0
49907.0,120165.0,96658.0,251080.0
49924.0,120167.0,96647.0,251050.0
49937.0,120203.0,96664.0,251030.0
49939.0,120227.0,96689.0,251043.0
49985.0,120287.0,96721.0,251102.0
49987.0,120365.0,96729.0,251176.0
50049.0,120458.0,96787.0,251177.0
50074.0,120532.0,96762.0,251210.0
50105.0,120546.0,96778.0,251201.0
50119.0,120589.0,96786.0,251252.0
50130.0,120608.0,96795.0,251252.0
50119.0,120616.0,96795.0,251232.0
50128.0,120630.0,96814.0,251284.0
50138.0,120642.0,96810.0,251283.0
50144.0,120672.0,96800.0,251313.0
50170.0,120672.0,96820.0,251325.0
50162.0,120707.0,96828.0,251334.0
50153.0,120695.0,96803.0,251380.0
50128.0,120653.0,96832.0,251394.0
50109.0,120594.0,96797.0,251395.0
50081.0,120509.0,96755.0,251301.0
50027.0,120423.0,96727.0,251254.0
49991.0,120338.0,96710.0,251195.0
49954.0,120211.0,96660.0,251113.0
49918.0,120145.0,96626.0,251150.0
49914.0,120092.0,96619.0,251045.0
49912.0,120105.0,96623.0,251028.0
49912.0,120093.0,96623.0,251056.0
49937.0,120124.0,96628.0,251050.0
49946.0,120166.0,96635.0,251058.0
49951.0,120194.0,96621.0,251117.0
49959.0,120211.0,96628.0,251061.0
49969.0,120243.0,96620.0,251066.0
49984.0,120220.0,96616.0,251041.0
49988.0,120253.0,96611.0,251012.0
49984.0,120251.0,96595.0,251030.0
49985.0,120258.0,96594.0,251005.0
49986.0,120276.0,96605.0,251043.0
50008.0,120288.0,96615.0,251034.0
50006.0,120343.0,96590.0,251041.0
50005.0,120345.0,96611.0,251114.0
50039.0,120351.0,96619.0,251123.0
50045.0,120407.0,96609.0,251115.0
50064.0,120437.0,96628.0,251145.0
50072.0,120449.0,96637.0,251166.0
50092.0,120458.0,96648.0,251172.0
50090.0,120481.0,96655.0,251215.0
50109.0,120508.0,96656.0,251212.0
50087.0,120541.0,96646.0,251220.0
50087.0,120543.0,96635.0,251263.0
50093.0,120550.0,96646.0,251214.0
50067.0,120530.0,96632.0,251203.0
50073.0,120510.0,96620.0,251174.0
50047.0,120517.0,96596.0,251139.0
50039.0,120454.0,96550.0,251103.0
50015.0,120429.0,96529.0,251031.0
49983.0,120426.0,96499.0,250994.0
49961.0,120379.0,96513.0,250926.0
49953.0,120370.0,96459.0,250920.0
49952.0,120355.0,96473.0,250913.0
49965.0,120349.0,96486.0,250909.0
49970.0,120380.0,96476.0,250913.0
49983.0,120409.0,96490.0,250932.0
49986.0,120437.0,96489.0,250957.0
49989.0,120438.0,96492.0,250926.0
50008.0,120469.0,96464.0,250925.0
49994.0,120463.0,96447.0,250868.0
49998.0,120420.0,96424.0,250786.0
49999.0,120395.0,96405.0,250678.0
49971.0,120391.0,96365.0,250655.0
49956.0,120360.0,96351.0,250624.0
49964.0,120354.0,96351.0,250592.0
49975.0,120370.0,96369.0,250625.0
50004.0,120380.0,96374.0,250666.0
49987.0,120390.0,96368.0,250647.0
49989.0,120401.0,96388.0,250659.0
49971.0,120420.0,96394.0,250722.0
49995.0,120415.0,96413.0,250664.0
49982.0,120413.0,96412.0,250740.0
49982.0,120407.0,96403.0,250716.0
49978.0,120414.0,96416.0,250738.0
49973.0,120425.0,96409.0,250772.0
49958.0,120414.0,96406.0,250788.0
49955.0,120409.0,96419.0,250792.0
49971.0,120405.0,96405.0,250821.0
49966.0,120416.0,96419.0,250804.0
49958.0,120430.0,96424.0,250857.0
49961.0,120428.0,96437.0,250905.0
49963.0,120436.0,96433.0,250877.0
49958.0,120431.0,96431.0,250896.0
49989.0,120449.0,96422.0,250916.0
49960.0,120421.0,96446.0,250868.0
49959.0,120453.0,96401.0,250868.0
49973.0,120457.0,96427.0,250827.0
49977.0,120486.0,96422.0,250818.0
49995.0,120511.0,96433.0,250833.0
49984.0,120539.0,96410.0,250812.0
49999.0,120577.0,96412.0,250809.0
50011.0,120610.0,96431.0,250821.0
50038.0,120624.0,96437.0,250791.0
50047.0,120690.0,96445.0,250801.0
50062.0,120739.0,96419.0,250865.0
50086.0,120755.0,96423.0,250865.0
50103.0,120795.0,96412.0,250859.0
50112.0,120823.0,96405.0,250879.0
50117.0,120828.0,96425.0,250918.0
50114.0,120869.0,96431.0,250913.0
50142.0,120901.0,96459.0,250938.0
50137.0,120906.0,96443.0,250977.0
50156.0,120937.0,96451.0,251002.0
50167.0,120969.0,96477.0,251016.0
50184.0,120999.0,96465.0,251034.0
50209.0,121019.0,96485.0,251051.0
50228.0,121077.0,96508.0,251126.0
50238.0,121081.0,96523.0,251125.0
50263.0,121140.0,96512.0,251165.0
50284.0,121216.0,96512.0,251173.0
50314.0,121230.0,96547.0,251188.0
50318.0,121283.0,96549.0,251193.0
50337.0,121331.0,96574.0,251237.0
50349.0,121371.0,96572.0,251260.0
50370.0,121412.0,96588.0,251314.0
50398.0,121496.0,96573.0,251270.0
50441.0,121583.0,96574.0,251238.0
50484.0,121752.0,96585.0,251188.0
50541.0,121903.0,96576.0,251162.0
50613.0,122042.0,96575.0,251123.0
