51824.0,126190.0,98353.0,254050.0
51797.0,126122.0,98331.0,254047.0
51785.0,126048.0,98277.0,254013.0
51762.0,125970.0,98247.0,253952.0
51745.0,125874.0,98212.0,253969.0
51707.0,125775.0,98169.0,253936.0
51684.0,125658.0,98160.0,253980.0
51662.0,125553.0,98148.0,254015.0
51630.0,125461.0,98176.0,254099.0
51603.0,125357.0,98232.0,254166.0
51546.0,125183.0,98220.0,254207.0
51487.0,125035.0,98224.0,254198.0
51443.0,124876.0,98224.0,254154.0
51392.0,124734.0,98204.0,254148.0
51335.0,124565.0,98253.0,254129.0
51287.0,124349.0,98212.0,254075.0
51183.0,124115.0,98149.0,254041.0
51108.0,123898.0,98141.0,253953.0
51024.0,123686.0,98117.0,253933.0
50941.0,123439.0,98090.0,253878.0
50839.0,123141.0,98063.0,253837.0
50738.0,122885.0,98013.0,253762.0
50651.0,122642.0,98001.0,253724.0
50574.0,122407.0,97963.0,253738.0
50473.0,122211.0,97962.0,253709.0
50389.0,121981.0,97953.0,253758.0
50295.0,121764.0,97945.0,253711.0
50197.0,121561.0,97934.0,253755.0
50092.0,121400.0,97951.0,253805.0
50021.0,121200.0,97937.0,253849.0
49933.0,121058.0,97927.0,253858.0
49861.0,120926.0,97917.0,253933.0
49797.0,120834.0,97938.0,253982.0
49723.0,120787.0,97963.0,254075.0
49693.0,120721.0,97981.0,254125.0
49663.0,120765.0,97968.0,254219.0
49625.0,120755.0,97994.0,254269.0
49622.0,120821.0,98003.0,254343.0
49610.0,120862.0,98026.0,254443.0
49620.0,120935.0,98033.0,254454.0
49627.0,121020.0,98059.0,254539.0
49653.0,121065.0,98082.0,254586.0
49641.0,121173.0,98092.0,254639.0
49657.0,121236.0,98120.0,254700.0
49665.0,121342.0,98135.0,254760.0
49682.0,121410.0,98142.0,254803.0
49685.0,121508.0,98125.0,254826.0
49680.0,121590.0,98144.0,254902.0
49704.0,121685.0,98154.0,254936.0
49716.0,121800.0,98161.0,254962.0
49745.0,121893.0,98160.0,254989.0
49773.0,121963.0,98162.0,254947.0
49780.0,122041.0,98157.0,254922.0
49800.0,122109.0,98143.0,254850.0
49818.0,122167.0,98114.0,254786.0
49835.0,122254.0,98110.0,254777.0
49843.0,122309.0,98098.0,254671.0
49872.0,122418.0,98117.0,254694.0
49894.0,122493.0,98119.0,254639.0
49906.0,122619.0,98108.0,254681.0
49946.0,122728.0,98128.0,254757.0
49974.0,122826.0,98126.0,254773.0
49997.0,122919.0,98126.0,254806.0
50036.0,123036.0,98163.0,254842.0
50061.0,123133.0,98151.0,254860.0
50097.0,123229.0,98132.0,254886.0
50125.0,123299.0,98144.0,254920.0
50159.0,123392.0,98173.0,254911.0
50181.0,123495.0,98185.0,254959.0
50223.0,123605.0,98174.0,254993.0
50245.0,123677.0,98193.0,255033.0
50273.0,123773.0,98207.0,255058.0
50311.0,123874.0,98204.0,255079.0
50341.0,123941.0,98215.0,255121.0
50362.0,124046.0,98185.0,255130.0
50385.0,124152.0,98209.0,255194.0
50416.0,124213.0,98206.0,255171.0
50438.0,124293.0,98205.0,255158.0
50456.0,124387.0,98234.0,255180.0
50502.0,124467.0,98215.0,255185.0
50528.0,124535.0,98194.0,255193.0
50550.0,124643.0,98202.0,255184.0
50578.0,124711.0,98207.0,255180.0
50594.0,124810.0,98217.0,255194.0
50638.0,124868.0,98201.0,255171.0
50651.0,124943.0,98211.0,255158.0
50687.0,125019.0,98213.0,255170.0
50719.0,125103.0,98206.0,255189.0
50724.0,125148.0,98238.0,255186.0
50757.0,125232.0,98218.0,255189.0
50792.0,125308.0,98222.0,255198.0
50814.0,125355.0,98219.0,255191.0
50848.0,125442.0,98229.0,255198.0
50867.0,125497.0,98227.0,255222.0
50904.0,125564.0,98218.0,255216.0
50925.0,125629.0,98216.0,255202.0
50943.0,125651.0,98194.0,255207.0
50972.0,125725.0,98220.0,255206.0
50997.0,125755.0,98227.0,255190.0
51043.0,125844.0,98220.0,255229.0
51024.0,125870.0,98200.0,255239.0
51049.0,125950.0,98229.0,255240.0
51070.0,126030.0,98217.0,255225.0
51085.0,126082.0,98224.0,255241.0
51100.0,126172.0,98242.0,255239.0
51130.0,126208.0,98234.0,255277.0
51155.0,126266.0,98239.0,255320.0
51161.0,126329.0,98237.0,255308.0
51183.0,126361.0,98235.0,255288.0
51195.0,126412.0,98238.0,255318.0
51212.0,126488.0,98231.0,255290.0
51234.0,126518.0,98223.0,255297.0
51246.0,126559.0,98206.0,255282.0
51270.0,126593.0,98215.0,255315.0
51294.0,126657.0,98203.0,255253.0
51303.0,126730.0,98202.0,255247.0
51285.0,126736.0,98187.0,255220.0
51338.0,126815.0,98198.0,255245.0
51350.0,126853.0,98201.0,255238.0
51372.0,126913.0,98201.0,255219.0
51396.0,126938.0,98199.0,255205.0
51398.0,126981.0,98179.0,255205.0
51411.0,127019.0,98169.0,255203.0
51424.0,127090.0,98168.0,255205.0
51439.0,127121.0,98179.0,255176.0
51456.0,127149.0,98171.0,255185.0
51465.0,127197.0,98163.0,255193.0
51493.0,127224.0,98163.0,255170.0
51498.0,127265.0,98142.0,255164.0
51505.0,127301.0,98155.0,255146.0
51515.0,127319.0,98132.0,255092.0
51534.0,127356.0,98118.0,254993.0
51540.0,127341.0,98074.0,254888.0
51545.0,127339.0,98025.0,254795.0
51550.0,127346.0,98033.0,254744.0
51542.0,127348.0,98014.0,254630.0
51572.0,127374.0,97992.0,254547.0
51575.0,127384.0,97991.0,254523.0
51584.0,127386.0,97989.0,254530.0
51599.0,127421.0,98005.0,254523.0
51608.0,127453.0,98013.0,254514.0
51625.0,127465.0,97996.0,254523.0
51635.0,127478.0,97995.0,254505.0
51646.0,127513.0,97968.0,254516.0
51654.0,127545.0,98002.0,254495.0
51673.0,127583.0,97988.0,254511.0
51683.0,127593.0,98010.0,254459.0
51691.0,127635.0,97993.0,254531.0
51709.0,127675.0,97998.0,254529.0
51716.0,127710.0,98013.0,254539.0
51729.0,127764.0,98022.0,254535.0
51745.0,127771.0,98023.0,254585.0
51745.0,127807.0,98029.0,254604.0
51763.0,127847.0,98032.0,254605.0
51757.0,127886.0,98045.0,254636.0
51767.0,127895.0,98042.0,254641.0
51791.0,127924.0,98049.0,254625.0
51788.0,127948.0,98076.0,254652.0
51809.0,127950.0,98050.0,254664.0
51813.0,127959.0,98080.0,254667.0
51824.0,127998.0,98102.0,254698.0
51838.0,128017.0,98126.0,254777.0
51838.0,128050.0,98170.0,254815.0
51846.0,128073.0,98180.0,254873.0
51855.0,128112.0,98221.0,254897.0
51870.0,128128.0,98228.0,254969.0
51856.0,128200.0,98236.0,254998.0
51863.0,128211.0,98262.0,255061.0
51877.0,128235.0,98260.0,255081.0
51897.0,128265.0,98312.0,255095.0
51903.0,128273.0,98308.0,255108.0
51910.0,128299.0,98307.0,255130.0
51934.0,128327.0,98315.0,255148.0
51923.0,128345.0,98321.0,255181.0
51940.0,128394.0,98341.0,255199.0
51937.0,128408.0,98344.0,255243.0
51958.0,128436.0,98362.0,255233.0
51957.0,128470.0,98349.0,255271.0
51954.0,128499.0,98351.0,255286.0
51972.0,128529.0,98365.0,255294.0
51969.0,128560.0,98375.0,255332.0
51993.0,128577.0,98369.0,255335.0
52016.0,128606.0,98371.0,255300.0
51998.0,128639.0,98368.0,255328.0
51999.0,128653.0,98342.0,255345.0
52022.0,128687.0,98372.0,255337.0
52011.0,128694.0,98376.0,255393.0
52046.0,128739.0,98384.0,255392.0
52076.0,128760.0,98395.0,255452.0
52070.0,128770.0,98402.0,255399.0
52080.0,128813.0,98417.0,255427.0
52097.0,128831.0,98423.0,255467.0
52067.0,128874.0,98426.0,255502.0
52100.0,128900.0,98437.0,255568.0
52101.0,128948.0,98465.0,255593.0
52106.0,128974.0,98482.0,255678.0
52108.0,129003.0,98499.0,255725.0
52125.0,129055.0,98499.0,255770.0
52122.0,129115.0,98523.0,255841.0
52145.0,129157.0,98536.0,255865.0
52157.0,129219.0,98551.0,255867.0
52136.0,129215.0,98544.0,255846.0
52145.0,129274.0,98522.0,255849.0
52163.0,129283.0,98514.0,255799.0
52148.0,129300.0,98496.0,255753.0
52154.0,129262.0,98492.0,255651.0
52155.0,129264.0,98475.0,255630.0
52165.0,129266.0,98488.0,255591.0
52171.0,129284.0,98457.0,255552.0
52175.0,129285.0,98472.0,255557.0
52169.0,129284.0,98454.0,255522.0
52168.0,129281.0,98471.0,255564.0
52202.0,129299.0,98473.0,255553.0
52190.0,129313.0,98483.0,255556.0
52195.0,129361.0,98498.0,255538.0
52226.0,129348.0,98494.0,255571.0
52216.0,129355.0,98498.0,255568.0
52229.0,129358.0,98504.0,255616.0
52224.0,129356.0,98495.0,255541.0
52243.0,129380.0,98512.0,255604.0
52246.0,129401.0,98528.0,255640.0
52241.0,129411.0,98557.0,255691.0
52255.0,129408.0,98566.0,255700.0
52253.0,129431.0,98572.0,255750.0
52280.0,129478.0,98592.0,255798.0
52293.0,129479.0,98590.0,255800.0
52282.0,129486.0,98615.0,255816.0
52288.0,129525.0,98603.0,255858.0
52300.0,129511.0,98595.0,255849.0
52305.0,129533.0,98597.0,255895.0
52305.0,129556.0,98587.0,255878.0
52313.0,129544.0,98626.0,255883.0
52327.0,129564.0,98621.0,255922.0
52319.0,129561.0,98644.0,255923.0
52340.0,129578.0,98641.0,255953.0
52325.0,129586.0,98656.0,255922.0
52338.0,129590.0,98668.0,255972.0
52353.0,129632.0,98691.0,255993.0
52351.0,129622.0,98707.0,256005.0
52353.0,129622.0,98709.0,256022.0
52349.0,129649.0,98705.0,256060.0
52349.0,129654.0,98737.0,256122.0
52357.0,129700.0,98745.0,256112.0
52369.0,129756.0,98772.0,256172.0
52374.0,129727.0,98773.0,256195.0
52366.0,129762.0,98780.0,256232.0
52377.0,129801.0,98809.0,256285.0
52395.0,129820.0,98813.0,256290.0
52377.0,129837.0,98805.0,256342.0
52398.0,129857.0,98821.0,256337.0
52403.0,129865.0,98814.0,256360.0
52403.0,129899.0,98814.0,256367.0
52409.0,129922.0,98836.0,256420.0
52422.0,129941.0,98841.0,256390.0
52433.0,129950.0,98860.0,256421.0
52398.0,129977.0,98839.0,256463.0
52438.0,129979.0,98874.0,256450.0
52429.0,130006.0,98860.0,256486.0
52445.0,130011.0,98857.0,256443.0
52458.0,130038.0,98860.0,256452.0
52448.0,130065.0,98882.0,256510.0
52451.0,130066.0,98876.0,256474.0
52463.0,130112.0,98884.0,256535.0
52460.0,130110.0,98885.0,256494.0
52468.0,130112.0,98897.0,256514.0
52487.0,130125.0,98888.0,256529.0
52487.0,130147.0,98901.0,256565.0
52491.0,130168.0,98921.0,256576.0
52503.0,130217.0,98916.0,256564.0
52501.0,130183.0,98924.0,256586.0
52511.0,130207.0,98924.0,256624.0
52510.0,130218.0,98912.0,256630.0
52523.0,130237.0,98925.0,256619.0
52529.0,130239.0,98913.0,256607.0
52515.0,130259.0,98913.0,256581.0
52518.0,130264.0,98888.0,256543.0
52519.0,130218.0,98883.0,256469.0
52509.0,130212.0,98875.0,256425.0
52505.0,130205.0,98876.0,256367.0
52496.0,130184.0,98860.0,256357.0
52500.0,130157.0,98859.0,256368.0
52500.0,130149.0,98875.0,256344.0
52486.0,130130.0,98872.0,256334.0
52485.0,130094.0,98875.0,256377.0
52483.0,130107.0,98888.0,256389.0
52477.0,130114.0,98870.0,256403.0
52480.0,130113.0,98901.0,256407.0
52478.0,130122.0,98902.0,256411.0
52485.0,130116.0,98907.0,256436.0
52486.0,130122.0,98926.0,256440.0
52476.0,130120.0,98911.0,256490.0
52493.0,130114.0,98924.0,256498.0
52491.0,130133.0,98947.0,256491.0
52485.0,130140.0,98975.0,256556.0
52498.0,130159.0,98962.0,256562.0
52503.0,130158.0,98977.0,256547.0
52497.0,130155.0,98979.0,256590.0
52496.0,130173.0,98975.0,256599.0
52500.0,130170.0,98975.0,256577.0
52498.0,130161.0,98977.0,256645.0
52506.0,130176.0,98974.0,256626.0
52501.0,130189.0,98970.0,256624.0
52502.0,130176.0,99000.0,256666.0
52506.0,130172.0,99023.0,256653.0
52510.0,130181.0,98995.0,256658.0
52509.0,130156.0,99009.0,256628.0
52508.0,130185.0,99014.0,256636.0
52518.0,130196.0,99007.0,256668.0
52502.0,130176.0,98999.0,256637.0
52515.0,130193.0,99004.0,256654.0
52509.0,130179.0,99014.0,256663.0
52502.0,130179.0,99006.0,256669.0
52509.0,130180.0,99008.0,256666.0
52531.0,130182.0,99034.0,256699.0
52522.0,130190.0,99027.0,256695.0
52516.0,130169.0,99024.0,256709.0
52523.0,130192.0,99026.0,256732.0
52529.0,130210.0,99033.0,256768.0
52527.0,130199.0,99055.0,256799.0
52509.0,130220.0,99054.0,256789.0
52519.0,130262.0,99048.0,256836.0
52527.0,130232.0,99064.0,256823.0
52534.0,130261.0,99067.0,256840.0
52530.0,130278.0,99063.0,256870.0
52537.0,130288.0,99057.0,256886.0
52529.0,130277.0,99083.0,256913.0
52545.0,130296.0,99082.0,256939.0
52553.0,130312.0,99101.0,256948.0
52568.0,130319.0,99081.0,256922.0
52567.0,130331.0,99092.0,256973.0
52568.0,130337.0,99091.0,256975.0
52563.0,130360.0,99103.0,256992.0
52569.0,130358.0,99098.0,257023.0
52593.0,130380.0,99117.0,257030.0
52572.0,130376.0,99115.0,257013.0
52592.0,130410.0,99105.0,257026.0
52577.0,130405.0,99104.0,257037.0
52566.0,130437.0,99132.0,257079.0
52598.0,130444.0,99134.0,257098.0
52613.0,130462.0,99157.0,257136.0
52611.0,130471.0,99131.0,257149.0
52601.0,130503.0,99133.0,257122.0
52598.0,130523.0,99133.0,257141.0
52618.0,130510.0,99123.0,257149.0
52620.0,130537.0,99128.0,257119.0
52621.0,130507.0,99135.0,257074.0
52602.0,130513.0,99114.0,257062.0
52599.0,130474.0,99067.0,256987.0
52595.0,130459.0,99092.0,256972.0
52589.0,130415.0,99078.0,256934.0
52580.0,130407.0,99085.0,256850.0
52573.0,130346.0,99066.0,256841.0
52554.0,130326.0,99062.0,256835.0
52551.0,130284.0,99047.0,256821.0
52546.0,130276.0,99082.0,256828.0
52538.0,130237.0,99087.0,256799.0
52524.0,130203.0,99070.0,256819.0
52528.0,130208.0,99075.0,256823.0
52516.0,130174.0,99079.0,256854.0
52503.0,130158.0,99089.0,256863.0
52505.0,130155.0,99086.0,256853.0
52498.0,130145.0,99101.0,256887.0
52505.0,130129.0,99100.0,256872.0
52486.0,130128.0,99094.0,256899.0
52490.0,130134.0,99097.0,256885.0
52483.0,130128.0,99105.0,256901.0
52484.0,130130.0,99102.0,256947.0
52500.0,130141.0,99131.0,256930.0
52496.0,130131.0,99124.0,256941.0
52484.0,130129.0,99123.0,256965.0
52497.0,130148.0,99105.0,256974.0
52479.0,130128.0,99111.0,256993.0
52478.0,130137.0,99119.0,256978.0
52493.0,130119.0,99095.0,256988.0
52496.0,130124.0,99109.0,257034.0
52490.0,130111.0,99138.0,256984.0
52486.0,130106.0,99121.0,256960.0
52489.0,130102.0,99116.0,256973.0
52492.0,130099.0,99134.0,256967.0
52480.0,130085.0,99135.0,256981.0
52477.0,130091.0,99121.0,256977.0
52482.0,130100.0,99120.0,256986.0
52472.0,130076.0,99133.0,257008.0
52479.0,130069.0,99124.0,257025.0
52481.0,130084.0,99126.0,257024.0
52485.0,130116.0,99155.0,257030.0
52475.0,130082.0,99153.0,257036.0
52480.0,130066.0,99177.0,257088.0
52486.0,130084.0,99137.0,257058.0
52487.0,130119.0,99136.0,257072.0
52479.0,130100.0,99130.0,257126.0
52484.0,130102.0,99152.0,257147.0
52490.0,130125.0,99171.0,257096.0
52496.0,130124.0,99177.0,257122.0
52488.0,130143.0,99165.0,257131.0
52502.0,130142.0,99168.0,257154.0
52496.0,130150.0,99167.0,257173.0
52487.0,130155.0,99182.0,257184.0
52508.0,130164.0,99178.0,257177.0
52502.0,130172.0,99177.0,257180.0
52512.0,130194.0,99186.0,257225.0
52525.0,130219.0,99164.0,257204.0
52495.0,130205.0,99178.0,257213.0
52505.0,130220.0,99168.0,257229.0
52516.0,130220.0,99186.0,257253.0
52538.0,130223.0,99195.0,257276.0
52522.0,130232.0,99183.0,257290.0
52532.0,130245.0,99214.0,257250.0
52535.0,130241.0,99196.0,257276.0
52545.0,130261.0,99203.0,257321.0
52540.0,130251.0,99181.0,257315.0
52541.0,130266.0,99173.0,257218.0
52527.0,130230.0,99151.0,257191.0
52514.0,130221.0,99143.0,257119.0
52517.0,130161.0,99138.0,257070.0
52497.0,130123.0,99106.0,257071.0
52487.0,130085.0,99116.0,256996.0
52474.0,130024.0,99104.0,256969.0
52459.0,129984.0,99109.0,256984.0
52444.0,129929.0,99127.0,256907.0
52441.0,129900.0,99093.0,256926.0
52423.0,129864.0,99120.0,256945.0
52424.0,129831.0,99109.0,256951.0
52398.0,129808.0,99113.0,256942.0
52396.0,129797.0,99105.0,256968.0
52390.0,129746.0,99111.0,256976.0
52388.0,129755.0,99122.0,256984.0
52381.0,129744.0,99113.0,256957.0
52391.0,129729.0,99142.0,257011.0
52373.0,129732.0,99147.0,257040.0
52377.0,129741.0,99149.0,257026.0
52371.0,129708.0,99140.0,257024.0
52367.0,129718.0,99146.0,257047.0
52381.0,129703.0,99141.0,257072.0
52362.0,129706.0,99153.0,257068.0
52373.0,129686.0,99162.0,257074.0
52363.0,129703.0,99148.0,257103.0
52357.0,129712.0,99171.0,257064.0
52333.0,129684.0,99111.0,257068.0
52356.0,129685.0,99146.0,257118.0
52361.0,129701.0,99150.0,257113.0
52356.0,129708.0,99168.0,257088.0
52360.0,129675.0,99136.0,257075.0
52346.0,129673.0,99117.0,257100.0
52351.0,129650.0,99142.0,257019.0
52330.0,129644.0,99144.0,257061.0
52340.0,129638.0,99126.0,257064.0
52349.0,129632.0,99120.0,257036.0
52342.0,129608.0,99125.0,257022.0
52338.0,129576.0,99116.0,257013.0
52321.0,129581.0,99121.0,257028.0
52327.0,129556.0,99096.0,256991.0
52327.0,129547.0,99121.0,256965.0
52318.0,129527.0,99087.0,256975.0
52329.0,129507.0,99112.0,256979.0
52314.0,129490.0,99098.0,256998.0
52320.0,129468.0,99117.0,256980.0
52328.0,129443.0,99122.0,256974.0
52321.0,129431.0,99125.0,256991.0
52328.0,129420.0,99119.0,257017.0
52316.0,129413.0,99114.0,257017.0
52307.0,129427.0,99116.0,257041.0
52321.0,129417.0,99128.0,257034.0
52319.0,129377.0,99127.0,257036.0
52314.0,129404.0,99113.0,257071.0
52323.0,129399.0,99126.0,257079.0
52321.0,129378.0,99128.0,257061.0
52339.0,129387.0,99139.0,257075.0
52323.0,129374.0,99148.0,257103.0
52328.0,129358.0,99152.0,257093.0
52318.0,129383.0,99144.0,257119.0
52332.0,129381.0,99153.0,257157.0
52298.0,129397.0,99145.0,257141.0
52311.0,129377.0,99155.0,257123.0
52317.0,129351.0,99141.0,257151.0
52320.0,129347.0,99132.0,257086.0
52304.0,129326.0,99109.0,257064.0
52295.0,129279.0,99104.0,256994.0
52273.0,129218.0,99089.0,256943.0
52262.0,129169.0,99081.0,256901.0
52250.0,129111.0,99083.0,256863.0
52231.0,129066.0,99057.0,256809.0
52210.0,128994.0,99047.0,256818.0
52202.0,128950.0,99064.0,256761.0
52176.0,128913.0,99051.0,256785.0
52169.0,128867.0,99032.0,256752.0
52148.0,128826.0,99047.0,256782.0
52143.0,128768.0,99039.0,256765.0
52128.0,128750.0,99048.0,256742.0
52127.0,128720.0,99027.0,256706.0
52114.0,128687.0,99041.0,256779.0
52109.0,128661.0,99053.0,256753.0
52104.0,128624.0,99046.0,256759.0
52105.0,128613.0,99057.0,256763.0
52097.0,128595.0,99051.0,256760.0
52090.0,128553.0,99052.0,256755.0
52078.0,128552.0,99038.0,256791.0
52087.0,128533.0,99043.0,256806.0
52082.0,128521.0,99053.0,256767.0
52086.0,128510.0,99060.0,256802.0
52093.0,128474.0,99078.0,256777.0
52079.0,128454.0,99070.0,256829.0
52074.0,128448.0,99053.0,256788.0
52069.0,128432.0,99078.0,256754.0
