51264.0,124363.0,96750.0,252408.0
51240.0,124245.0,96664.0,252189.0
51190.0,124146.0,96571.0,252003.0
51165.0,124007.0,96488.0,251856.0
51120.0,123874.0,96399.0,251660.0
51071.0,123739.0,96340.0,251574.0
51033.0,123583.0,96291.0,251470.0
51012.0,123460.0,96246.0,251376.0
50971.0,123336.0,96207.0,251349.0
50944.0,123199.0,96163.0,251220.0
50903.0,123055.0,96135.0,251161.0
50858.0,122905.0,96084.0,251125.0
50862.0,122719.0,96091.0,251080.0
50785.0,122610.0,96034.0,251100.0
50764.0,122499.0,96036.0,251116.0
50734.0,122389.0,96038.0,251130.0
50714.0,122263.0,96018.0,251127.0
50680.0,122161.0,96028.0,251115.0
50655.0,122050.0,96034.0,251136.0
50644.0,121977.0,96045.0,251136.0
50638.0,121894.0,96056.0,251179.0
50610.0,121815.0,96071.0,251216.0
50567.0,121742.0,96078.0,251271.0
50566.0,121647.0,96095.0,251288.0
50522.0,121589.0,96129.0,251348.0
50520.0,121515.0,96155.0,251421.0
50514.0,121467.0,96203.0,251479.0
50512.0,121485.0,96234.0,251568.0
50523.0,121477.0,96284.0,251654.0
50552.0,121527.0,96361.0,251682.0
50574.0,121588.0,96401.0,251794.0
50605.0,121675.0,96454.0,251886.0
50633.0,121769.0,96503.0,251953.0
50691.0,121828.0,96553.0,252028.0
50712.0,121924.0,96611.0,252121.0
50741.0,121988.0,96662.0,252196.0
50773.0,122058.0,96692.0,252264.0
50776.0,122082.0,96712.0,252294.0
50794.0,122105.0,96720.0,252295.0
50799.0,122110.0,96731.0,252349.0
50805.0,122094.0,96738.0,252345.0
50788.0,122053.0,96701.0,252341.0
50777.0,122034.0,96704.0,252303.0
50761.0,121985.0,96712.0,252287.0
50745.0,121932.0,96686.0,252255.0
50657.0,121713.0,96613.0,252106.0
50630.0,121603.0,96590.0,252033.0
50591.0,121475.0,96543.0,251966.0
50545.0,121366.0,96515.0,251894.0
50498.0,121250.0,96511.0,251873.0
50456.0,121131.0,96473.0,251851.0
50393.0,120970.0,96470.0,251817.0
50332.0,120821.0,96454.0,251805.0
50282.0,120692.0,96450.0,251804.0
50230.0,120563.0,96444.0,251769.0
50184.0,120452.0,96432.0,251800.0
50117.0,120335.0,96431.0,251786.0
50061.0,120215.0,96432.0,251813.0
50017.0,120102.0,96445.0,251864.0
49983.0,119977.0,96466.0,251860.0
49943.0,119885.0,96468.0,251899.0
49911.0,119802.0,96503.0,251963.0
49819.0,119681.0,96445.0,251966.0
49840.0,119659.0,96528.0,251995.0
49805.0,119609.0,96530.0,252041.0
49777.0,119552.0,96552.0,252076.0
49746.0,119491.0,96561.0,252118.0
49732.0,119428.0,96531.0,252082.0
49717.0,119361.0,96531.0,252078.0
49669.0,119291.0,96525.0,252092.0
49648.0,119236.0,96524.0,252061.0
49612.0,119193.0,96519.0,252077.0
49601.0,119107.0,96532.0,252027.0
49573.0,119069.0,96529.0,252058.0
49570.0,119050.0,96531.0,252055.0
49556.0,119035.0,96522.0,252051.0
49531.0,119014.0,96546.0,252075.0
49526.0,118997.0,96556.0,252106.0
49526.0,118974.0,96568.0,252172.0
49491.0,118958.0,96601.0,252209.0
49503.0,118943.0,96591.0,252234.0
49505.0,118941.0,96628.0,252261.0
49492.0,118938.0,96626.0,252316.0
49491.0,118945.0,96639.0,252308.0
49502.0,118952.0,96674.0,252370.0
49501.0,118959.0,96687.0,252414.0
49498.0,118999.0,96714.0,252428.0
49506.0,118997.0,96718.0,252481.0
49490.0,119013.0,96732.0,252557.0
49495.0,119034.0,96732.0,252554.0
49499.0,119065.0,96746.0,252577.0
49494.0,119048.0,96748.0,252574.0
49499.0,119069.0,96756.0,252615.0
49496.0,119126.0,96788.0,252665.0
49512.0,119118.0,96783.0,252651.0
49528.0,119180.0,96791.0,252711.0
49548.0,119224.0,96789.0,252687.0
49562.0,119237.0,96796.0,252682.0
49573.0,119290.0,96772.0,252715.0
49589.0,119290.0,96789.0,252657.0
49582.0,119327.0,96758.0,252632.0
49593.0,119325.0,96764.0,252621.0
49590.0,119353.0,96735.0,252597.0
49603.0,119379.0,96709.0,252598.0
49623.0,119398.0,96696.0,252564.0
49648.0,119438.0,96687.0,252552.0
49655.0,119453.0,96673.0,252496.0
49665.0,119485.0,96681.0,252451.0
49658.0,119512.0,96657.0,252459.0
49699.0,119537.0,96662.0,252448.0
49693.0,119564.0,96617.0,252461.0
49708.0,119570.0,96631.0,252423.0
49705.0,119579.0,96615.0,252365.0
49697.0,119607.0,96590.0,252352.0
49740.0,119646.0,96594.0,252370.0
49754.0,119696.0,96571.0,252364.0
49767.0,119712.0,96576.0,252350.0
49790.0,119726.0,96546.0,252302.0
49791.0,119758.0,96535.0,252274.0
49797.0,119788.0,96526.0,252288.0
49814.0,119833.0,96522.0,252224.0
49828.0,119818.0,96521.0,252232.0
49841.0,119829.0,96479.0,252204.0
49849.0,119849.0,96493.0,252181.0
49848.0,119867.0,96491.0,252176.0
49868.0,119867.0,96495.0,252187.0
49881.0,119874.0,96483.0,252160.0
49902.0,119933.0,96475.0,252175.0
49902.0,119943.0,96469.0,252182.0
49918.0,119988.0,96470.0,252151.0
49919.0,120002.0,96495.0,252158.0
49937.0,120030.0,96472.0,252168.0
49940.0,120058.0,96473.0,252121.0
49949.0,120088.0,96464.0,252160.0
49972.0,120092.0,96449.0,252127.0
49974.0,120123.0,96450.0,252106.0
49993.0,120183.0,96456.0,252099.0
50006.0,120195.0,96444.0,252114.0
49989.0,120222.0,96432.0,252096.0
50037.0,120257.0,96432.0,252042.0
50025.0,120266.0,96432.0,252011.0
50038.0,120276.0,96425.0,252026.0
50058.0,120293.0,96407.0,251950.0
50070.0,120318.0,96389.0,251931.0
50082.0,120341.0,96379.0,251883.0
50095.0,120336.0,96369.0,251878.0
50094.0,120368.0,96367.0,251837.0
50114.0,120399.0,96362.0,251856.0
50141.0,120439.0,96388.0,251847.0
50136.0,120443.0,96384.0,251835.0
50142.0,120473.0,96383.0,251883.0
50157.0,120480.0,96402.0,251934.0
50164.0,120504.0,96449.0,251935.0
50163.0,120529.0,96472.0,251976.0
50196.0,120553.0,96476.0,252062.0
50185.0,120557.0,96518.0,252090.0
50193.0,120571.0,96560.0,252172.0
50195.0,120568.0,96599.0,252210.0
50204.0,120609.0,96617.0,252289.0
50214.0,120651.0,96654.0,252351.0
50233.0,120678.0,96703.0,252431.0
50243.0,120680.0,96753.0,252538.0
50240.0,120686.0,96792.0,252585.0
50245.0,120685.0,96833.0,252654.0
50274.0,120697.0,96833.0,252662.0
50260.0,120742.0,96874.0,252735.0
50271.0,120749.0,96880.0,252774.0
50276.0,120775.0,96905.0,252800.0
50277.0,120775.0,96930.0,252848.0
50293.0,120782.0,96952.0,252836.0
50302.0,120781.0,96951.0,252836.0
50298.0,120812.0,96982.0,252947.0
50284.0,120801.0,97008.0,253048.0
50308.0,120816.0,97054.0,253056.0
50316.0,120817.0,97063.0,253130.0
50308.0,120826.0,97084.0,253134.0
50302.0,120809.0,97064.0,253157.0
50316.0,120843.0,97091.0,253195.0
50291.0,120848.0,97123.0,253189.0
50322.0,120859.0,97126.0,253210.0
50319.0,120874.0,97125.0,253297.0
50325.0,120888.0,97189.0,253307.0
50317.0,120880.0,97176.0,253347.0
50315.0,120893.0,97181.0,253396.0
50317.0,120902.0,97210.0,253408.0
50309.0,120889.0,97191.0,253405.0
50311.0,120903.0,97206.0,253410.0
50326.0,120915.0,97213.0,253426.0
50326.0,120973.0,97209.0,253459.0
50335.0,120951.0,97217.0,253426.0
50336.0,120968.0,97183.0,253425.0
50331.0,120990.0,97214.0,253402.0
50341.0,121007.0,97199.0,253390.0
50357.0,121022.0,97187.0,253420.0
50369.0,121055.0,97207.0,253426.0
50373.0,121090.0,97220.0,253434.0
50389.0,121130.0,97224.0,253486.0
50398.0,121157.0,97231.0,253496.0
50416.0,121167.0,97187.0,253488.0
50401.0,121176.0,97213.0,253503.0
50405.0,121174.0,97211.0,253499.0
50402.0,121197.0,97216.0,253476.0
50418.0,121186.0,97219.0,253508.0
50399.0,121186.0,97197.0,253472.0
50403.0,121193.0,97165.0,253415.0
50401.0,121212.0,97121.0,253344.0
50425.0,121233.0,97110.0,253317.0
50437.0,121250.0,97119.0,253297.0
50408.0,121248.0,97097.0,253247.0
50428.0,121229.0,97071.0,253204.0
50429.0,121208.0,97066.0,253174.0
50414.0,121190.0,97047.0,253155.0
50412.0,121182.0,97030.0,253105.0
50397.0,121172.0,97023.0,253088.0
50410.0,121175.0,97018.0,253044.0
50403.0,121186.0,97021.0,252990.0
50411.0,121192.0,96966.0,252972.0
50446.0,121233.0,96974.0,252933.0
50474.0,121285.0,96967.0,252936.0
50486.0,121317.0,96963.0,252963.0
50507.0,121365.0,96969.0,252964.0
50506.0,121396.0,96966.0,252961.0
50516.0,121412.0,96949.0,252979.0
50534.0,121421.0,96967.0,252954.0
50530.0,121440.0,96966.0,252982.0
50531.0,121455.0,96934.0,252975.0
50539.0,121468.0,96966.0,252952.0
50538.0,121496.0,96955.0,252957.0
50562.0,121500.0,96948.0,252996.0
50573.0,121515.0,96972.0,253015.0
50572.0,121529.0,96996.0,253032.0
50569.0,121550.0,97001.0,253097.0
50553.0,121545.0,96986.0,253070.0
50558.0,121569.0,97040.0,253164.0
50565.0,121544.0,97039.0,253153.0
50553.0,121550.0,97029.0,253192.0
50553.0,121548.0,97035.0,253168.0
50523.0,121515.0,97015.0,253134.0
50516.0,121487.0,96999.0,253103.0
50507.0,121480.0,96997.0,253122.0
50497.0,121432.0,96992.0,253109.0
50487.0,121439.0,96986.0,253137.0
50474.0,121421.0,96995.0,253168.0
50475.0,121431.0,97006.0,253158.0
50475.0,121416.0,97019.0,253151.0
50457.0,121429.0,97018.0,253231.0
50462.0,121410.0,97043.0,253287.0
50462.0,121421.0,97053.0,253274.0
50448.0,121430.0,97074.0,253272.0
50472.0,121464.0,97124.0,253361.0
50469.0,121447.0,97126.0,253366.0
50446.0,121500.0,97133.0,253433.0
50462.0,121477.0,97164.0,253459.0
50456.0,121481.0,97159.0,253436.0
50454.0,121457.0,97158.0,253422.0
50449.0,121472.0,97137.0,253427.0
50438.0,121456.0,97132.0,253386.0
50421.0,121447.0,97115.0,253399.0
50404.0,121441.0,97118.0,253430.0
50411.0,121436.0,97117.0,253396.0
50428.0,121426.0,97123.0,253377.0
50406.0,121450.0,97122.0,253391.0
50389.0,121449.0,97104.0,253450.0
50386.0,121429.0,97094.0,253375.0
50373.0,121427.0,97077.0,253359.0
50374.0,121439.0,97070.0,253397.0
50360.0,121429.0,97065.0,253389.0
50374.0,121446.0,97096.0,253363.0
50389.0,121490.0,97092.0,253417.0
50380.0,121529.0,97087.0,253443.0
50388.0,121570.0,97099.0,253440.0
50412.0,121614.0,97127.0,253453.0
50432.0,121635.0,97087.0,253477.0
50438.0,121664.0,97078.0,253446.0
50454.0,121671.0,97062.0,253379.0
50445.0,121688.0,97053.0,253372.0
50440.0,121705.0,97034.0,253327.0
50458.0,121725.0,97021.0,253316.0
50443.0,121726.0,97012.0,253282.0
50460.0,121734.0,96998.0,253268.0
50479.0,121734.0,97012.0,253262.0
50483.0,121741.0,97035.0,253257.0
50465.0,121756.0,97008.0,253218.0
50483.0,121766.0,97005.0,253255.0
50475.0,121780.0,96988.0,253235.0
50485.0,121794.0,96990.0,253211.0
50493.0,121807.0,96983.0,253211.0
50500.0,121807.0,96960.0,253169.0
50506.0,121846.0,96956.0,253143.0
50512.0,121880.0,96944.0,253138.0
50512.0,121873.0,96945.0,253147.0
50510.0,121896.0,96951.0,253168.0
50509.0,121890.0,96944.0,253115.0
50519.0,121892.0,96935.0,253116.0
50525.0,121901.0,96919.0,253083.0
50532.0,121909.0,96899.0,253092.0
50539.0,121926.0,96891.0,253050.0
50541.0,121925.0,96899.0,253029.0
50541.0,121938.0,96882.0,253036.0
50539.0,121953.0,96884.0,253087.0
50537.0,121971.0,96916.0,253073.0
50521.0,121948.0,96904.0,253114.0
50521.0,121964.0,96913.0,253091.0
50528.0,121956.0,96894.0,253094.0
50521.0,121958.0,96877.0,253046.0
50517.0,121967.0,96856.0,253027.0
50526.0,121954.0,96831.0,253027.0
50521.0,121973.0,96836.0,252984.0
50523.0,122004.0,96819.0,252956.0
50549.0,122018.0,96837.0,252972.0
50548.0,122063.0,96827.0,252991.0
50571.0,122061.0,96824.0,252983.0
50572.0,122072.0,96837.0,252976.0
50575.0,122096.0,96837.0,252964.0
50587.0,122137.0,96827.0,253024.0
50604.0,122151.0,96846.0,253030.0
50597.0,122189.0,96856.0,253042.0
50636.0,122206.0,96836.0,253008.0
50606.0,122257.0,96855.0,253036.0
50632.0,122272.0,96869.0,253022.0
50640.0,122317.0,96846.0,253087.0
50656.0,122345.0,96846.0,253030.0
50664.0,122379.0,96857.0,253024.0
50678.0,122412.0,96831.0,252991.0
50696.0,122423.0,96810.0,252992.0
50694.0,122465.0,96832.0,252961.0
50705.0,122492.0,96801.0,252957.0
50724.0,122541.0,96826.0,252967.0
50728.0,122544.0,96804.0,252928.0
50741.0,122592.0,96801.0,252913.0
50744.0,122609.0,96775.0,252936.0
50765.0,122656.0,96777.0,252939.0
50778.0,122682.0,96770.0,252899.0
50779.0,122693.0,96748.0,252930.0
50778.0,122687.0,96783.0,252886.0
50805.0,122748.0,96747.0,252874.0
50812.0,122786.0,96754.0,252874.0
50814.0,122803.0,96742.0,252841.0
50838.0,122813.0,96731.0,252848.0
50842.0,122861.0,96731.0,252838.0
50839.0,122876.0,96719.0,252874.0
50846.0,122914.0,96715.0,252868.0
50867.0,122937.0,96720.0,252843.0
50871.0,122959.0,96715.0,252832.0
50890.0,122957.0,96697.0,252857.0
50889.0,122955.0,96690.0,252796.0
50883.0,122975.0,96675.0,252743.0
50875.0,123003.0,96671.0,252726.0
50895.0,122997.0,96667.0,252714.0
50910.0,122993.0,96623.0,252653.0
50893.0,122994.0,96632.0,252648.0
50886.0,122997.0,96621.0,252633.0
50902.0,122981.0,96591.0,252568.0
50912.0,122986.0,96598.0,252539.0
50924.0,122983.0,96574.0,252568.0
50916.0,122988.0,96574.0,252514.0
50904.0,122963.0,96569.0,252503.0
50919.0,122992.0,96556.0,252451.0
50901.0,122983.0,96519.0,252458.0
50923.0,122986.0,96518.0,252409.0
50933.0,122994.0,96526.0,252417.0
50940.0,123008.0,96506.0,252376.0
50942.0,123036.0,96509.0,252382.0
50940.0,123033.0,96477.0,252384.0
50954.0,123040.0,96493.0,252376.0
50950.0,123070.0,96491.0,252397.0
50965.0,123080.0,96505.0,252386.0
50960.0,123119.0,96517.0,252377.0
50947.0,123111.0,96511.0,252375.0
50973.0,123120.0,96514.0,252412.0
50989.0,123121.0,96508.0,252391.0
50985.0,123131.0,96501.0,252405.0
50992.0,123155.0,96491.0,252400.0
50995.0,123179.0,96495.0,252403.0
51005.0,123195.0,96494.0,252399.0
51021.0,123189.0,96483.0,252393.0
51026.0,123208.0,96485.0,252437.0
51032.0,123221.0,96490.0,252373.0
51033.0,123210.0,96476.0,252362.0
51037.0,123239.0,96463.0,252373.0
51049.0,123244.0,96434.0,252346.0
51024.0,123265.0,96457.0,252349.0
51051.0,123273.0,96462.0,252367.0
51056.0,123289.0,96455.0,252349.0
51077.0,123307.0,96440.0,252322.0
51090.0,123345.0,96465.0,252331.0
51071.0,123343.0,96444.0,252309.0
51085.0,123353.0,96453.0,252307.0
51086.0,123367.0,96450.0,252340.0
51088.0,123394.0,96449.0,252380.0
51085.0,123410.0,96461.0,252346.0
51113.0,123406.0,96459.0,252343.0
51104.0,123432.0,96464.0,252354.0
51110.0,123459.0,96450.0,252383.0
51128.0,123479.0,96425.0,252409.0
51137.0,123493.0,96458.0,252419.0
51152.0,123534.0,96446.0,252396.0
51147.0,123563.0,96439.0,252391.0
51154.0,123560.0,96454.0,252391.0
51170.0,123582.0,96458.0,252412.0
51171.0,123588.0,96469.0,252408.0
51173.0,123598.0,96469.0,252395.0
51205.0,123639.0,96466.0,252306.0
51158.0,123646.0,96445.0,252446.0
51173.0,123649.0,96452.0,252433.0
51172.0,123676.0,96477.0,252415.0
51166.0,123642.0,96466.0,252471.0
51157.0,123669.0,96463.0,252504.0
51163.0,123699.0,96466.0,252514.0
51177.0,123713.0,96472.0,252524.0
51169.0,123726.0,96458.0,252475.0
51185.0,123735.0,96468.0,252498.0
51188.0,123780.0,96437.0,252477.0
51205.0,123784.0,96429.0,252429.0
51224.0,123811.0,96432.0,252416.0
51205.0,123821.0,96407.0,252408.0
51222.0,123816.0,96391.0,252334.0
51213.0,123817.0,96384.0,252335.0
51222.0,123812.0,96370.0,252309.0
51186.0,123831.0,96350.0,252273.0
51235.0,123810.0,96341.0,252238.0
51229.0,123811.0,96330.0,252210.0
51220.0,123813.0,96355.0,252233.0
51211.0,123791.0,96341.0,252209.0
51212.0,123803.0,96335.0,252184.0
51217.0,123812.0,96340.0,252217.0
51216.0,123808.0,96343.0,252213.0
51216.0,123816.0,96330.0,252222.0
51216.0,123820.0,96344.0,252203.0
51222.0,123826.0,96333.0,252195.0
51235.0,123846.0,96329.0,252219.0
51234.0,123877.0,96327.0,252239.0
51243.0,123893.0,96352.0,252262.0
51246.0,123912.0,96343.0,252262.0
51266.0,123938.0,96344.0,252252.0
51249.0,123951.0,96331.0,252238.0
51258.0,123972.0,96342.0,252267.0
51280.0,123977.0,96351.0,252282.0
51295.0,123984.0,96365.0,252279.0
51298.0,124025.0,96353.0,252285.0
51321.0,124039.0,96357.0,252301.0
51317.0,124066.0,96370.0,252301.0
51327.0,124104.0,96363.0,252311.0
51337.0,124102.0,96360.0,252252.0
51351.0,124126.0,96350.0,252258.0
51349.0,124129.0,96388.0,252268.0
51354.0,124143.0,96361.0,252291.0
51364.0,124158.0,96364.0,252326.0
51375.0,124175.0,96348.0,252281.0
51368.0,124167.0,96350.0,252264.0
51378.0,124192.0,96345.0,252264.0
51375.0,124198.0,96352.0,252239.0
51373.0,124216.0,96347.0,252319.0
51368.0,124214.0,96346.0,252292.0
51389.0,124232.0,96356.0,252311.0
51405.0,124247.0,96346.0,252318.0
51397.0,124241.0,96362.0,252307.0
51396.0,124267.0,96376.0,252332.0
51401.0,124288.0,96368.0,252361.0
51401.0,124291.0,96368.0,252361.0
51421.0,124322.0,96381.0,252371.0
51423.0,124351.0,96407.0,252396.0
51438.0,124355.0,96404.0,252417.0
51445.0,124367.0,96436.0,252427.0
51446.0,124397.0,96401.0,252409.0
51435.0,124419.0,96413.0,252441.0
51457.0,124426.0,96404.0,252461.0
51473.0,124453.0,96414.0,252478.0
51454.0,124477.0,96402.0,252454.0
51486.0,124475.0,96411.0,252450.0
51478.0,124505.0,96382.0,252458.0
51484.0,124562.0,96405.0,252465.0
51496.0,124575.0,96395.0,252476.0
51505.0,124613.0,96393.0,252451.0
51503.0,124615.0,96388.0,252452.0
51507.0,124605.0,96378.0,252441.0
51505.0,124660.0,96378.0,252432.0
51511.0,124656.0,96343.0,252369.0
51516.0,124641.0,96343.0,252361.0
51516.0,124658.0,96329.0,252330.0
51513.0,124638.0,96309.0,252300.0
51498.0,124637.0,96305.0,252286.0
51507.0,124607.0,96301.0,252270.0
51521.0,124612.0,96300.0,252276.0
51516.0,124634.0,96302.0,252272.0
51540.0,124607.0,96315.0,252274.0
51534.0,124629.0,96313.0,252280.0
51514.0,124644.0,96334.0,252300.0
51541.0,124645.0,96328.0,252304.0
51516.0,124653.0,96324.0,252300.0
51531.0,124659.0,96336.0,252319.0
51540.0,124686.0,96351.0,252326.0
51540.0,124710.0,96351.0,252355.0
51544.0,124726.0,96361.0,252384.0
51558.0,124736.0,96363.0,252408.0
51579.0,124773.0,96387.0,252422.0
51566.0,124794.0,96377.0,252489.0
51566.0,124815.0,96391.0,252542.0
51581.0,124840.0,96381.0,252487.0
51562.0,124853.0,96384.0,252502.0
51587.0,124863.0,96408.0,252502.0
51589.0,124854.0,96399.0,252482.0
51582.0,124889.0,96381.0,252493.0
51588.0,124899.0,96397.0,252510.0
51595.0,124930.0,96363.0,252501.0
51621.0,124954.0,96394.0,252510.0
