51484.0,123660.0,96258.0,251015.0
51498.0,123689.0,96311.0,251039.0
51507.0,123706.0,96339.0,251099.0
51516.0,123734.0,96402.0,251143.0
51523.0,123752.0,96434.0,251169.0
51520.0,123752.0,96448.0,251152.0
51500.0,123742.0,96440.0,251134.0
51491.0,123712.0,96412.0,251056.0
51482.0,123679.0,96374.0,250987.0
51438.0,123557.0,96254.0,250852.0
51379.0,123393.0,96216.0,250696.0
51333.0,123256.0,96171.0,250604.0
51277.0,123066.0,96158.0,250530.0
51227.0,122911.0,96175.0,250563.0
51151.0,122697.0,96196.0,250572.0
51091.0,122485.0,96193.0,250539.0
51000.0,122264.0,96221.0,250526.0
50909.0,122037.0,96191.0,250531.0
50810.0,121755.0,96189.0,250472.0
50704.0,121502.0,96161.0,250447.0
50602.0,121186.0,96151.0,250483.0
50504.0,120912.0,96110.0,250445.0
50380.0,120647.0,96144.0,250573.0
50332.0,120438.0,96203.0,250755.0
50239.0,120276.0,96248.0,250919.0
50193.0,120122.0,96306.0,251042.0
50151.0,119965.0,96346.0,251153.0
50088.0,119874.0,96400.0,251229.0
50061.0,119800.0,96422.0,251336.0
50048.0,119724.0,96452.0,251400.0
50008.0,119656.0,96478.0,251498.0
49961.0,119599.0,96493.0,251605.0
49935.0,119541.0,96516.0,251611.0
49897.0,119490.0,96523.0,251676.0
49856.0,119430.0,96516.0,251688.0
49813.0,119400.0,96520.0,251678.0
49792.0,119379.0,96524.0,251683.0
49767.0,119380.0,96522.0,251655.0
49761.0,119408.0,96531.0,251694.0
49748.0,119439.0,96533.0,251764.0
49736.0,119484.0,96569.0,251836.0
49723.0,119540.0,96566.0,251929.0
49686.0,119630.0,96564.0,251959.0
49735.0,119704.0,96613.0,252110.0
49738.0,119785.0,96643.0,252143.0
49759.0,119903.0,96650.0,252176.0
49774.0,119992.0,96680.0,252261.0
49802.0,120098.0,96679.0,252319.0
49813.0,120213.0,96721.0,252369.0
49842.0,120336.0,96728.0,252439.0
49871.0,120476.0,96749.0,252552.0
49895.0,120611.0,96774.0,252585.0
49926.0,120746.0,96793.0,252659.0
49967.0,120879.0,96811.0,252737.0
49999.0,121003.0,96841.0,252771.0
50016.0,121113.0,96850.0,252845.0
50062.0,121227.0,96884.0,252941.0
50100.0,121330.0,96921.0,252947.0
50121.0,121439.0,96893.0,253005.0
50167.0,121547.0,96927.0,253038.0
50193.0,121678.0,96950.0,253081.0
50233.0,121792.0,96971.0,253138.0
50264.0,121910.0,96966.0,253189.0
50293.0,122023.0,96995.0,253232.0
50339.0,122146.0,97003.0,253244.0
50361.0,122257.0,97007.0,253297.0
50393.0,122355.0,97022.0,253275.0
50414.0,122450.0,97019.0,253335.0
50449.0,122537.0,97048.0,253356.0
50495.0,122633.0,97033.0,253373.0
50509.0,122724.0,97022.0,253396.0
50544.0,122800.0,97055.0,253390.0
50585.0,122891.0,97072.0,253439.0
50615.0,123005.0,97068.0,253463.0
50648.0,123095.0,97081.0,253480.0
50684.0,123197.0,97092.0,253489.0
50719.0,123273.0,97081.0,253522.0
50727.0,123373.0,97106.0,253545.0
50776.0,123455.0,97139.0,253593.0
50804.0,123527.0,97131.0,253544.0
50823.0,123624.0,97114.0,253559.0
50854.0,123660.0,97108.0,253566.0
50874.0,123732.0,97093.0,253487.0
50904.0,123775.0,97098.0,253466.0
50931.0,123793.0,97109.0,253396.0
50928.0,123844.0,97092.0,253315.0
50953.0,123893.0,97083.0,253249.0
50971.0,123965.0,97081.0,253240.0
50974.0,124005.0,97066.0,253245.0
51011.0,124059.0,97096.0,253247.0
51030.0,124112.0,97081.0,253200.0
51047.0,124155.0,97093.0,253235.0
51080.0,124233.0,97096.0,253264.0
51108.0,124254.0,97064.0,253260.0
51117.0,124324.0,97102.0,253270.0
51146.0,124384.0,97109.0,253280.0
51165.0,124466.0,97112.0,253317.0
51180.0,124518.0,97123.0,253325.0
51207.0,124567.0,97129.0,253346.0
51220.0,124641.0,97147.0,253361.0
51216.0,124689.0,97144.0,253400.0
51281.0,124759.0,97173.0,253432.0
51301.0,124832.0,97184.0,253432.0
51299.0,124879.0,97190.0,253466.0
51327.0,124937.0,97188.0,253482.0
51334.0,125001.0,97193.0,253513.0
51348.0,125031.0,97215.0,253511.0
51377.0,125089.0,97204.0,253506.0
51420.0,125130.0,97246.0,253542.0
51408.0,125175.0,97205.0,253521.0
51441.0,125255.0,97222.0,253560.0
51445.0,125300.0,97230.0,253537.0
51471.0,125337.0,97230.0,253542.0
51480.0,125398.0,97244.0,253561.0
51500.0,125410.0,97233.0,253517.0
51523.0,125448.0,97232.0,253540.0
51525.0,125512.0,97250.0,253553.0
51545.0,125530.0,97264.0,253584.0
51567.0,125570.0,97252.0,253561.0
51573.0,125612.0,97262.0,253560.0
51583.0,125662.0,97272.0,253551.0
51601.0,125700.0,97254.0,253588.0
51630.0,125744.0,97266.0,253569.0
51632.0,125801.0,97260.0,253614.0
51646.0,125866.0,97258.0,253596.0
51659.0,125893.0,97277.0,253596.0
51685.0,125931.0,97275.0,253633.0
51680.0,125972.0,97269.0,253587.0
51709.0,126021.0,97278.0,253633.0
51722.0,126073.0,97289.0,253637.0
51730.0,126094.0,97294.0,253625.0
51755.0,126132.0,97311.0,253669.0
51771.0,126179.0,97292.0,253679.0
51778.0,126213.0,97292.0,253678.0
51784.0,126268.0,97322.0,253690.0
51812.0,126300.0,97315.0,253702.0
51819.0,126340.0,97317.0,253668.0
51828.0,126357.0,97317.0,253718.0
51838.0,126411.0,97332.0,253677.0
51863.0,126418.0,97323.0,253709.0
51880.0,126452.0,97309.0,253701.0
51892.0,126492.0,97321.0,253712.0
51908.0,126507.0,97343.0,253701.0
51920.0,126563.0,97332.0,253714.0
51912.0,126601.0,97330.0,253722.0
51949.0,126601.0,97356.0,253744.0
51960.0,126612.0,97356.0,253734.0
51975.0,126661.0,97333.0,253725.0
51975.0,126696.0,97323.0,253740.0
51997.0,126730.0,97336.0,253729.0
52002.0,126765.0,97305.0,253668.0
52014.0,126769.0,97304.0,253659.0
52024.0,126778.0,97302.0,253611.0
52023.0,126806.0,97290.0,253569.0
52042.0,126807.0,97273.0,253507.0
52031.0,126846.0,97246.0,253439.0
52035.0,126844.0,97254.0,253462.0
52052.0,126842.0,97258.0,253414.0
52041.0,126864.0,97257.0,253397.0
52055.0,126897.0,97242.0,253407.0
52066.0,126907.0,97237.0,253362.0
52036.0,126902.0,97259.0,253375.0
52085.0,126961.0,97223.0,253326.0
52075.0,126987.0,97223.0,253314.0
52087.0,127026.0,97218.0,253261.0
52088.0,127062.0,97226.0,253267.0
52100.0,127068.0,97209.0,253294.0
52111.0,127081.0,97223.0,253251.0
52101.0,127118.0,97210.0,253263.0
52112.0,127140.0,97193.0,253261.0
52116.0,127170.0,97201.0,253244.0
52129.0,127226.0,97198.0,253302.0
52159.0,127271.0,97205.0,253306.0
52156.0,127319.0,97224.0,253289.0
52168.0,127351.0,97211.0,253277.0
52183.0,127372.0,97216.0,253308.0
52189.0,127416.0,97227.0,253286.0
52202.0,127432.0,97188.0,253300.0
52195.0,127433.0,97178.0,253253.0
52214.0,127466.0,97198.0,253282.0
52231.0,127492.0,97183.0,253264.0
52242.0,127510.0,97193.0,253275.0
52253.0,127550.0,97195.0,253253.0
52252.0,127578.0,97175.0,253245.0
52263.0,127582.0,97198.0,253266.0
52263.0,127629.0,97176.0,253259.0
52288.0,127662.0,97183.0,253258.0
52298.0,127666.0,97187.0,253275.0
52321.0,127715.0,97181.0,253226.0
52310.0,127747.0,97183.0,253268.0
52332.0,127765.0,97178.0,253243.0
52326.0,127780.0,97179.0,253253.0
52338.0,127793.0,97178.0,253290.0
52357.0,127823.0,97181.0,253244.0
52362.0,127844.0,97181.0,253248.0
52341.0,127873.0,97122.0,253279.0
52387.0,127925.0,97167.0,253271.0
52386.0,127958.0,97171.0,253275.0
52404.0,127984.0,97173.0,253267.0
52394.0,128030.0,97168.0,253297.0
52419.0,128031.0,97172.0,253308.0
52435.0,128038.0,97194.0,253321.0
52436.0,128064.0,97195.0,253319.0
52457.0,128112.0,97170.0,253357.0
52459.0,128132.0,97187.0,253352.0
52479.0,128163.0,97190.0,253364.0
52495.0,128191.0,97213.0,253368.0
52484.0,128229.0,97199.0,253394.0
52499.0,128254.0,97208.0,253346.0
52518.0,128269.0,97194.0,253396.0
52527.0,128297.0,97212.0,253409.0
52545.0,128324.0,97210.0,253429.0
52548.0,128322.0,97192.0,253378.0
52548.0,128382.0,97216.0,253459.0
52566.0,128397.0,97208.0,253466.0
52580.0,128417.0,97203.0,253403.0
52577.0,128408.0,97211.0,253397.0
52584.0,128425.0,97190.0,253297.0
52589.0,128416.0,97146.0,253254.0
52589.0,128417.0,97127.0,253213.0
52581.0,128408.0,97136.0,253144.0
52582.0,128408.0,97108.0,253134.0
52593.0,128367.0,97123.0,253101.0
52575.0,128360.0,97078.0,253074.0
52581.0,128347.0,97083.0,253033.0
52575.0,128295.0,97094.0,253002.0
52581.0,128286.0,97075.0,252994.0
52579.0,128253.0,97078.0,252925.0
52577.0,128219.0,97031.0,252918.0
52566.0,128196.0,97055.0,252890.0
52567.0,128214.0,97055.0,252911.0
52581.0,128189.0,97045.0,252878.0
52573.0,128195.0,97040.0,252885.0
52554.0,128197.0,97038.0,252938.0
52572.0,128176.0,97037.0,252874.0
52569.0,128173.0,97030.0,252856.0
52581.0,128183.0,97034.0,252841.0
52606.0,128164.0,97016.0,252800.0
52591.0,128158.0,97012.0,252809.0
52592.0,128140.0,97005.0,252787.0
52586.0,128161.0,97001.0,252784.0
52584.0,128153.0,96998.0,252758.0
52591.0,128178.0,97005.0,252744.0
52577.0,128160.0,96998.0,252772.0
52583.0,128187.0,96994.0,252769.0
52574.0,128156.0,96981.0,252713.0
52580.0,128151.0,96991.0,252717.0
52594.0,128140.0,96995.0,252714.0
52598.0,128125.0,97007.0,252725.0
52602.0,128139.0,96985.0,252692.0
52591.0,128150.0,96970.0,252713.0
52592.0,128119.0,96963.0,252719.0
52595.0,128123.0,96975.0,252736.0
52590.0,128094.0,96982.0,252705.0
52575.0,128120.0,96981.0,252721.0
52601.0,128114.0,96974.0,252709.0
52583.0,128107.0,96959.0,252713.0
52608.0,128092.0,96964.0,252693.0
52600.0,128100.0,96970.0,252699.0
52615.0,128109.0,96980.0,252668.0
52596.0,128095.0,96975.0,252694.0
52601.0,128087.0,96969.0,252694.0
52591.0,128072.0,96946.0,252664.0
52612.0,128102.0,96971.0,252699.0
52600.0,128094.0,96978.0,252695.0
52617.0,128083.0,96968.0,252676.0
52616.0,128091.0,96947.0,252663.0
52613.0,128086.0,96943.0,252680.0
52620.0,128082.0,96954.0,252650.0
52627.0,128059.0,96938.0,252690.0
52631.0,128056.0,96944.0,252664.0
52636.0,128050.0,96942.0,252658.0
52628.0,128037.0,96929.0,252647.0
52632.0,128039.0,96928.0,252628.0
52616.0,128019.0,96901.0,252637.0
52617.0,128027.0,96920.0,252609.0
52630.0,128027.0,96897.0,252601.0
52620.0,128025.0,96902.0,252585.0
52629.0,128017.0,96888.0,252618.0
52600.0,128026.0,96876.0,252584.0
52621.0,128003.0,96853.0,252541.0
52618.0,127979.0,96860.0,252511.0
52610.0,127960.0,96855.0,252467.0
52602.0,127944.0,96821.0,252483.0
52607.0,127910.0,96814.0,252430.0
52588.0,127885.0,96811.0,252401.0
52560.0,127833.0,96788.0,252354.0
52558.0,127785.0,96796.0,252339.0
52541.0,127765.0,96778.0,252333.0
52539.0,127717.0,96797.0,252320.0
52539.0,127685.0,96765.0,252295.0
52525.0,127664.0,96791.0,252284.0
52515.0,127631.0,96778.0,252291.0
52511.0,127612.0,96759.0,252277.0
52516.0,127585.0,96795.0,252323.0
52497.0,127584.0,96758.0,252260.0
52510.0,127566.0,96751.0,252251.0
52504.0,127566.0,96772.0,252237.0
52501.0,127544.0,96779.0,252271.0
52501.0,127533.0,96782.0,252282.0
52496.0,127532.0,96787.0,252275.0
52496.0,127504.0,96781.0,252254.0
52487.0,127523.0,96773.0,252282.0
52494.0,127512.0,96770.0,252293.0
52490.0,127509.0,96775.0,252276.0
52473.0,127517.0,96782.0,252268.0
52470.0,127486.0,96779.0,252265.0
52494.0,127510.0,96776.0,252275.0
52478.0,127495.0,96767.0,252261.0
52479.0,127499.0,96771.0,252255.0
52491.0,127484.0,96775.0,252229.0
52479.0,127495.0,96759.0,252251.0
52473.0,127474.0,96757.0,252244.0
52461.0,127433.0,96728.0,252226.0
52472.0,127451.0,96753.0,252237.0
52479.0,127446.0,96761.0,252204.0
52467.0,127449.0,96746.0,252198.0
52467.0,127438.0,96740.0,252185.0
52466.0,127452.0,96751.0,252224.0
52455.0,127472.0,96743.0,252202.0
52468.0,127464.0,96758.0,252210.0
52479.0,127438.0,96748.0,252198.0
52470.0,127440.0,96752.0,252240.0
52467.0,127463.0,96760.0,252213.0
52472.0,127454.0,96745.0,252196.0
52479.0,127451.0,96735.0,252220.0
52481.0,127459.0,96738.0,252218.0
52488.0,127483.0,96744.0,252222.0
52489.0,127475.0,96753.0,252229.0
52488.0,127479.0,96764.0,252268.0
52498.0,127471.0,96784.0,252270.0
52494.0,127514.0,96766.0,252281.0
52500.0,127505.0,96771.0,252259.0
52497.0,127501.0,96748.0,252236.0
52505.0,127504.0,96746.0,252253.0
52505.0,127501.0,96738.0,252242.0
52510.0,127510.0,96743.0,252253.0
52508.0,127527.0,96756.0,252294.0
52513.0,127518.0,96761.0,252292.0
52525.0,127542.0,96745.0,252261.0
52512.0,127546.0,96741.0,252292.0
52529.0,127515.0,96749.0,252292.0
52520.0,127561.0,96754.0,252306.0
52510.0,127565.0,96747.0,252263.0
52521.0,127571.0,96737.0,252273.0
52533.0,127588.0,96750.0,252248.0
52520.0,127590.0,96748.0,252264.0
52525.0,127603.0,96751.0,252254.0
52523.0,127532.0,96730.0,252195.0
52521.0,127515.0,96734.0,252177.0
52494.0,127449.0,96704.0,252115.0
52487.0,127387.0,96692.0,252123.0
52472.0,127336.0,96693.0,252091.0
52456.0,127284.0,96707.0,252059.0
52446.0,127208.0,96680.0,252059.0
52420.0,127191.0,96666.0,252030.0
52412.0,127107.0,96677.0,252036.0
52412.0,127073.0,96688.0,252004.0
52402.0,127027.0,96674.0,251996.0
52375.0,126994.0,96708.0,251986.0
52385.0,126940.0,96670.0,252017.0
52371.0,126911.0,96669.0,251982.0
52341.0,126890.0,96659.0,251993.0
52375.0,126869.0,96656.0,251989.0
52322.0,126843.0,96648.0,252002.0
52331.0,126833.0,96662.0,251965.0
52332.0,126804.0,96674.0,252000.0
52338.0,126794.0,96674.0,251976.0
52325.0,126795.0,96657.0,251995.0
52355.0,126783.0,96647.0,252008.0
52330.0,126749.0,96676.0,251991.0
52332.0,126768.0,96650.0,251990.0
52327.0,126755.0,96634.0,251974.0
52324.0,126723.0,96652.0,251963.0
52306.0,126730.0,96649.0,251966.0
52323.0,126715.0,96647.0,251945.0
52299.0,126711.0,96662.0,251964.0
52304.0,126678.0,96644.0,251947.0
52304.0,126660.0,96657.0,251963.0
52298.0,126640.0,96674.0,252004.0
52296.0,126622.0,96682.0,251994.0
52297.0,126574.0,96694.0,252050.0
52303.0,126579.0,96734.0,252064.0
52301.0,126534.0,96747.0,252091.0
52301.0,126553.0,96751.0,252107.0
52296.0,126511.0,96786.0,252141.0
52291.0,126493.0,96786.0,252140.0
52295.0,126478.0,96797.0,252191.0
52291.0,126481.0,96809.0,252202.0
52291.0,126477.0,96793.0,252209.0
52288.0,126480.0,96792.0,252226.0
52290.0,126472.0,96803.0,252249.0
52285.0,126472.0,96809.0,252244.0
52284.0,126467.0,96818.0,252234.0
52287.0,126475.0,96793.0,252224.0
52284.0,126471.0,96799.0,252238.0
52288.0,126467.0,96798.0,252238.0
52282.0,126487.0,96788.0,252209.0
52281.0,126489.0,96781.0,252245.0
52270.0,126503.0,96781.0,252252.0
52296.0,126502.0,96787.0,252246.0
52295.0,126530.0,96780.0,252270.0
52290.0,126526.0,96771.0,252279.0
52301.0,126515.0,96776.0,252233.0
52299.0,126521.0,96781.0,252228.0
52315.0,126546.0,96786.0,252256.0
52304.0,126527.0,96764.0,252244.0
52316.0,126524.0,96764.0,252255.0
52317.0,126539.0,96780.0,252251.0
52332.0,126557.0,96757.0,252243.0
52320.0,126547.0,96777.0,252245.0
52344.0,126556.0,96793.0,252225.0
52334.0,126515.0,96783.0,252236.0
52325.0,126493.0,96790.0,252214.0
52327.0,126435.0,96790.0,252246.0
52306.0,126395.0,96786.0,252237.0
52290.0,126348.0,96781.0,252197.0
52274.0,126284.0,96777.0,252181.0
52254.0,126207.0,96768.0,252177.0
52244.0,126140.0,96764.0,252163.0
52223.0,126054.0,96751.0,252107.0
52185.0,125966.0,96722.0,252106.0
52162.0,125909.0,96745.0,252107.0
52154.0,125836.0,96766.0,252079.0
52123.0,125769.0,96723.0,252072.0
52110.0,125716.0,96740.0,252066.0
52104.0,125657.0,96724.0,252051.0
52086.0,125620.0,96709.0,252046.0
52075.0,125559.0,96718.0,252045.0
52069.0,125525.0,96747.0,252059.0
52059.0,125488.0,96729.0,252039.0
52050.0,125426.0,96742.0,252054.0
52009.0,125421.0,96714.0,252009.0
52023.0,125378.0,96719.0,252069.0
52028.0,125381.0,96739.0,252043.0
52015.0,125352.0,96732.0,252084.0
52013.0,125329.0,96732.0,252061.0
52017.0,125302.0,96750.0,252073.0
52005.0,125298.0,96736.0,252110.0
52016.0,125274.0,96731.0,252104.0
51989.0,125238.0,96732.0,252076.0
51999.0,125224.0,96730.0,252067.0
51978.0,125193.0,96741.0,252057.0
51967.0,125153.0,96722.0,252062.0
51971.0,125141.0,96728.0,252069.0
51971.0,125102.0,96735.0,252024.0
51972.0,125069.0,96745.0,252032.0
51991.0,125050.0,96727.0,252044.0
51974.0,125045.0,96747.0,252060.0
51955.0,125054.0,96785.0,252082.0
51993.0,125031.0,96783.0,252068.0
51966.0,124988.0,96775.0,252109.0
51979.0,124965.0,96772.0,252111.0
51998.0,124945.0,96803.0,252063.0
51983.0,124926.0,96753.0,252062.0
51978.0,124903.0,96729.0,252059.0
51971.0,124888.0,96706.0,251992.0
51962.0,124881.0,96676.0,251953.0
51945.0,124857.0,96641.0,251898.0
51937.0,124807.0,96590.0,251834.0
51929.0,124794.0,96549.0,251789.0
51891.0,124774.0,96510.0,251738.0
51861.0,124780.0,96476.0,251724.0
51853.0,124768.0,96436.0,251714.0
51824.0,124788.0,96428.0,251652.0
51825.0,124795.0,96430.0,251668.0
51785.0,124820.0,96420.0,251648.0
51826.0,124849.0,96402.0,251657.0
51832.0,124881.0,96412.0,251687.0
51833.0,124878.0,96419.0,251671.0
51840.0,124925.0,96412.0,251697.0
51849.0,124936.0,96442.0,251740.0
51850.0,124956.0,96428.0,251701.0
51849.0,124977.0,96421.0,251728.0
51852.0,124950.0,96432.0,251728.0
51862.0,124981.0,96438.0,251685.0
51859.0,124946.0,96437.0,251704.0
51861.0,124944.0,96443.0,251672.0
51865.0,124941.0,96451.0,251716.0
51884.0,124918.0,96474.0,251697.0
51879.0,124914.0,96461.0,251738.0
51885.0,124895.0,96466.0,251697.0
51876.0,124867.0,96473.0,251671.0
51876.0,124793.0,96462.0,251649.0
51861.0,124755.0,96452.0,251614.0
51838.0,124690.0,96442.0,251574.0
51818.0,124629.0,96441.0,251540.0
51798.0,124535.0,96406.0,251507.0
51787.0,124438.0,96422.0,251514.0
51766.0,124347.0,96414.0,251442.0
51739.0,124278.0,96404.0,251409.0
51715.0,124179.0,96422.0,251412.0
51718.0,124117.0,96397.0,251389.0
51679.0,124086.0,96397.0,251399.0
51664.0,123990.0,96420.0,251391.0
51643.0,123938.0,96384.0,251382.0
51634.0,123881.0,96407.0,251345.0
51627.0,123844.0,96400.0,251343.0
51612.0,123816.0,96411.0,251367.0
51627.0,123742.0,96405.0,251313.0
51616.0,123721.0,96407.0,251320.0
51610.0,123708.0,96379.0,251306.0
51606.0,123656.0,96398.0,251323.0
51603.0,123655.0,96390.0,251308.0
51609.0,123625.0,96420.0,251333.0
51607.0,123609.0,96430.0,251352.0
