50238.0,121244.0,96070.0,250702.0
50262.0,121305.0,96122.0,250685.0
50275.0,121317.0,96124.0,250728.0
50285.0,121353.0,96171.0,250780.0
50288.0,121380.0,96215.0,250827.0
50315.0,121431.0,96243.0,250880.0
50310.0,121435.0,96279.0,250945.0
50315.0,121425.0,96316.0,250951.0
50299.0,121421.0,96280.0,250899.0
50314.0,121467.0,96294.0,250835.0
50335.0,121463.0,96290.0,250916.0
50335.0,121469.0,96339.0,250979.0
50341.0,121479.0,96385.0,251108.0
50340.0,121488.0,96432.0,251141.0
50352.0,121471.0,96460.0,251190.0
50350.0,121461.0,96448.0,251165.0
50341.0,121444.0,96453.0,251153.0
50322.0,121380.0,96455.0,251175.0
50301.0,121325.0,96467.0,251148.0
50286.0,121279.0,96488.0,251189.0
50253.0,121227.0,96507.0,251205.0
50237.0,121152.0,96510.0,251224.0
50226.0,121086.0,96515.0,251218.0
50206.0,121058.0,96487.0,251234.0
50191.0,120987.0,96512.0,251277.0
50175.0,120960.0,96538.0,251298.0
50163.0,120910.0,96579.0,251337.0
50136.0,120871.0,96561.0,251330.0
50124.0,120800.0,96561.0,251352.0
50103.0,120781.0,96562.0,251331.0
50088.0,120756.0,96600.0,251411.0
50066.0,120722.0,96589.0,251436.0
50071.0,120658.0,96612.0,251472.0
50065.0,120661.0,96594.0,251476.0
50050.0,120638.0,96604.0,251449.0
50058.0,120626.0,96620.0,251455.0
50042.0,120608.0,96608.0,251449.0
50028.0,120595.0,96616.0,251447.0
50015.0,120582.0,96615.0,251492.0
50026.0,120559.0,96607.0,251486.0
50021.0,120533.0,96601.0,251489.0
50006.0,120493.0,96635.0,251472.0
50002.0,120490.0,96623.0,251552.0
49984.0,120469.0,96600.0,251584.0
49986.0,120438.0,96666.0,251593.0
49965.0,120406.0,96668.0,251656.0
49958.0,120405.0,96696.0,251684.0
49958.0,120397.0,96732.0,251722.0
49955.0,120399.0,96718.0,251752.0
49952.0,120377.0,96765.0,251792.0
49949.0,120384.0,96790.0,251821.0
49945.0,120379.0,96776.0,251898.0
49941.0,120378.0,96785.0,251867.0
49918.0,120354.0,96787.0,251851.0
49922.0,120326.0,96785.0,251889.0
49925.0,120324.0,96802.0,251926.0
49916.0,120332.0,96799.0,251946.0
49903.0,120346.0,96796.0,251955.0
49935.0,120375.0,96820.0,251960.0
49912.0,120380.0,96784.0,251942.0
49937.0,120413.0,96793.0,251967.0
49936.0,120433.0,96791.0,251974.0
49948.0,120428.0,96784.0,251962.0
49944.0,120433.0,96785.0,251967.0
49955.0,120440.0,96783.0,251982.0
49949.0,120442.0,96800.0,251951.0
49943.0,120447.0,96796.0,251979.0
49937.0,120438.0,96809.0,251970.0
49954.0,120416.0,96808.0,251960.0
49941.0,120398.0,96794.0,251918.0
49946.0,120357.0,96779.0,251885.0
49913.0,120306.0,96778.0,251872.0
49883.0,120246.0,96759.0,251851.0
49881.0,120208.0,96763.0,251816.0
49855.0,120171.0,96754.0,251780.0
49868.0,120145.0,96763.0,251784.0
49849.0,120120.0,96740.0,251738.0
49842.0,120083.0,96739.0,251804.0
49827.0,120060.0,96735.0,251748.0
49819.0,120057.0,96700.0,251739.0
49825.0,120056.0,96693.0,251716.0
49818.0,120056.0,96701.0,251713.0
49818.0,120071.0,96708.0,251702.0
49820.0,120071.0,96717.0,251720.0
49824.0,120086.0,96704.0,251701.0
49826.0,120103.0,96695.0,251715.0
49821.0,120098.0,96682.0,251685.0
49828.0,120124.0,96683.0,251682.0
49841.0,120131.0,96672.0,251647.0
49843.0,120167.0,96685.0,251677.0
49849.0,120180.0,96671.0,251661.0
49855.0,120195.0,96659.0,251662.0
49861.0,120219.0,96648.0,251627.0
49836.0,120214.0,96644.0,251628.0
49853.0,120217.0,96621.0,251632.0
49865.0,120221.0,96629.0,251623.0
49856.0,120227.0,96641.0,251650.0
49849.0,120196.0,96625.0,251575.0
49846.0,120206.0,96602.0,251570.0
49851.0,120193.0,96605.0,251573.0
49846.0,120183.0,96600.0,251573.0
49846.0,120197.0,96585.0,251553.0
49856.0,120192.0,96571.0,251479.0
49846.0,120186.0,96572.0,251482.0
49860.0,120212.0,96564.0,251499.0
49864.0,120220.0,96578.0,251489.0
49872.0,120237.0,96577.0,251525.0
49869.0,120273.0,96575.0,251539.0
49876.0,120284.0,96581.0,251526.0
49886.0,120303.0,96582.0,251547.0
49899.0,120315.0,96590.0,251551.0
49901.0,120333.0,96574.0,251506.0
49896.0,120350.0,96563.0,251536.0
49912.0,120377.0,96589.0,251519.0
49912.0,120387.0,96576.0,251494.0
49925.0,120410.0,96565.0,251542.0
49935.0,120406.0,96580.0,251539.0
49937.0,120442.0,96591.0,251533.0
49941.0,120478.0,96573.0,251566.0
49948.0,120482.0,96582.0,251595.0
49960.0,120528.0,96605.0,251607.0
49969.0,120529.0,96631.0,251645.0
49980.0,120563.0,96647.0,251659.0
49997.0,120606.0,96657.0,251748.0
50019.0,120660.0,96705.0,251768.0
50045.0,120698.0,96717.0,251799.0
50050.0,120777.0,96739.0,251852.0
50106.0,120829.0,96740.0,251880.0
50083.0,120849.0,96764.0,251953.0
50089.0,120885.0,96773.0,251918.0
50117.0,120918.0,96769.0,251939.0
50116.0,120965.0,96753.0,251949.0
50126.0,120990.0,96767.0,251981.0
50133.0,121014.0,96753.0,251982.0
50150.0,121050.0,96758.0,251934.0
50141.0,121092.0,96740.0,251927.0
50169.0,121137.0,96742.0,251933.0
50174.0,121176.0,96725.0,251877.0
50159.0,121203.0,96706.0,251854.0
50198.0,121236.0,96722.0,251864.0
50199.0,121244.0,96699.0,251796.0
50203.0,121265.0,96697.0,251808.0
50205.0,121259.0,96692.0,251739.0
50214.0,121235.0,96687.0,251758.0
50185.0,121238.0,96659.0,251680.0
50201.0,121233.0,96644.0,251673.0
50204.0,121218.0,96653.0,251708.0
50203.0,121196.0,96640.0,251704.0
50203.0,121179.0,96642.0,251621.0
50186.0,121177.0,96634.0,251651.0
50185.0,121163.0,96623.0,251595.0
50186.0,121146.0,96618.0,251592.0
50190.0,121126.0,96621.0,251636.0
50188.0,121147.0,96625.0,251595.0
50203.0,121172.0,96623.0,251601.0
50205.0,121193.0,96607.0,251583.0
50204.0,121196.0,96608.0,251592.0
50208.0,121207.0,96595.0,251587.0
50210.0,121225.0,96580.0,251553.0
50214.0,121255.0,96618.0,251578.0
50240.0,121267.0,96616.0,251576.0
50215.0,121243.0,96567.0,251556.0
50238.0,121292.0,96612.0,251565.0
50242.0,121315.0,96613.0,251582.0
50262.0,121333.0,96623.0,251571.0
50254.0,121354.0,96594.0,251576.0
50249.0,121369.0,96615.0,251568.0
50266.0,121396.0,96611.0,251604.0
50279.0,121410.0,96619.0,251557.0
50289.0,121420.0,96606.0,251580.0
50292.0,121432.0,96621.0,251535.0
50304.0,121449.0,96602.0,251556.0
50303.0,121456.0,96622.0,251507.0
50302.0,121482.0,96602.0,251512.0
50331.0,121484.0,96607.0,251540.0
50310.0,121500.0,96618.0,251533.0
50330.0,121499.0,96645.0,251569.0
50324.0,121539.0,96656.0,251595.0
50332.0,121555.0,96681.0,251639.0
50353.0,121586.0,96694.0,251706.0
50346.0,121623.0,96703.0,251656.0
50350.0,121636.0,96684.0,251726.0
50352.0,121647.0,96680.0,251736.0
50361.0,121664.0,96683.0,251729.0
50353.0,121685.0,96679.0,251768.0
50378.0,121717.0,96711.0,251830.0
50384.0,121735.0,96727.0,251896.0
50384.0,121772.0,96767.0,251935.0
50391.0,121763.0,96799.0,251947.0
50419.0,121826.0,96792.0,251997.0
50425.0,121828.0,96795.0,252014.0
50425.0,121863.0,96815.0,252011.0
50440.0,121925.0,96806.0,252081.0
50437.0,121912.0,96830.0,252050.0
50437.0,121922.0,96836.0,252119.0
50445.0,121948.0,96812.0,252069.0
50477.0,121978.0,96840.0,252062.0
50479.0,122010.0,96845.0,252084.0
50477.0,122056.0,96858.0,252143.0
50497.0,122071.0,96857.0,252091.0
50485.0,122095.0,96862.0,252118.0
50499.0,122112.0,96849.0,252129.0
50545.0,122141.0,96856.0,252112.0
50533.0,122167.0,96828.0,252100.0
50546.0,122201.0,96834.0,252101.0
50543.0,122224.0,96817.0,252075.0
50537.0,122251.0,96819.0,252112.0
50559.0,122265.0,96820.0,252101.0
50555.0,122299.0,96832.0,252088.0
50581.0,122292.0,96811.0,252065.0
50571.0,122279.0,96822.0,252020.0
50569.0,122288.0,96805.0,252047.0
50557.0,122252.0,96802.0,251964.0
50570.0,122238.0,96799.0,251929.0
50562.0,122232.0,96784.0,251929.0
50567.0,122219.0,96784.0,251947.0
50568.0,122180.0,96798.0,251910.0
50546.0,122161.0,96793.0,251914.0
50542.0,122157.0,96805.0,251900.0
50546.0,122140.0,96806.0,251898.0
50544.0,122122.0,96796.0,251863.0
50547.0,122125.0,96789.0,251859.0
50547.0,122136.0,96778.0,251793.0
50552.0,122153.0,96766.0,251823.0
50544.0,122166.0,96746.0,251801.0
50555.0,122168.0,96746.0,251788.0
50550.0,122171.0,96727.0,251756.0
50540.0,122127.0,96725.0,251735.0
50522.0,122057.0,96710.0,251699.0
50529.0,122007.0,96710.0,251753.0
50493.0,121937.0,96711.0,251769.0
50448.0,121853.0,96727.0,251768.0
50425.0,121777.0,96718.0,251713.0
50403.0,121723.0,96714.0,251739.0
50380.0,121659.0,96708.0,251740.0
50375.0,121607.0,96720.0,251758.0
50367.0,121579.0,96718.0,251725.0
50363.0,121540.0,96738.0,251701.0
50333.0,121521.0,96710.0,251723.0
50343.0,121484.0,96718.0,251712.0
50337.0,121467.0,96703.0,251697.0
50340.0,121464.0,96711.0,251746.0
50335.0,121483.0,96700.0,251715.0
50338.0,121485.0,96701.0,251691.0
50343.0,121501.0,96710.0,251716.0
50363.0,121530.0,96680.0,251679.0
50372.0,121537.0,96688.0,251672.0
50387.0,121605.0,96690.0,251702.0
50398.0,121623.0,96714.0,251693.0
50414.0,121659.0,96707.0,251684.0
50436.0,121715.0,96734.0,251697.0
50464.0,121732.0,96719.0,251745.0
50477.0,121787.0,96740.0,251729.0
50508.0,121819.0,96759.0,251746.0
50503.0,121864.0,96751.0,251744.0
50515.0,121910.0,96767.0,251800.0
50526.0,121953.0,96795.0,251830.0
50541.0,121985.0,96794.0,251861.0
50545.0,122027.0,96799.0,251845.0
50543.0,122075.0,96769.0,251837.0
50554.0,122104.0,96778.0,251818.0
50563.0,122120.0,96772.0,251830.0
50590.0,122183.0,96750.0,251845.0
50605.0,122211.0,96753.0,251867.0
50603.0,122221.0,96761.0,251848.0
50608.0,122268.0,96779.0,251892.0
50621.0,122305.0,96763.0,251852.0
50633.0,122316.0,96772.0,251899.0
50633.0,122359.0,96768.0,251891.0
50643.0,122347.0,96797.0,251887.0
50643.0,122383.0,96784.0,251900.0
50665.0,122411.0,96766.0,251888.0
50663.0,122462.0,96776.0,251875.0
50673.0,122467.0,96747.0,251910.0
50674.0,122501.0,96761.0,251905.0
50695.0,122504.0,96759.0,251886.0
50708.0,122532.0,96749.0,251873.0
50710.0,122547.0,96739.0,251838.0
50698.0,122548.0,96737.0,251816.0
50700.0,122515.0,96734.0,251783.0
50704.0,122509.0,96724.0,251765.0
50704.0,122492.0,96712.0,251721.0
50713.0,122478.0,96703.0,251716.0
50689.0,122451.0,96695.0,251696.0
50690.0,122439.0,96704.0,251671.0
50687.0,122409.0,96687.0,251660.0
50662.0,122394.0,96668.0,251630.0
50672.0,122403.0,96675.0,251645.0
50655.0,122398.0,96662.0,251620.0
50662.0,122382.0,96659.0,251593.0
50663.0,122365.0,96666.0,251560.0
50673.0,122368.0,96655.0,251589.0
50658.0,122382.0,96664.0,251590.0
50659.0,122385.0,96646.0,251582.0
50654.0,122347.0,96651.0,251568.0
50650.0,122349.0,96653.0,251568.0
50654.0,122343.0,96638.0,251560.0
50676.0,122331.0,96646.0,251541.0
50664.0,122351.0,96636.0,251564.0
50648.0,122363.0,96623.0,251543.0
50651.0,122357.0,96633.0,251561.0
50662.0,122371.0,96634.0,251552.0
50665.0,122389.0,96630.0,251548.0
50659.0,122375.0,96610.0,251555.0
50667.0,122394.0,96602.0,251514.0
50666.0,122397.0,96579.0,251479.0
50672.0,122392.0,96577.0,251430.0
50669.0,122393.0,96576.0,251411.0
50668.0,122401.0,96549.0,251431.0
50671.0,122390.0,96543.0,251409.0
50684.0,122418.0,96526.0,251372.0
50677.0,122421.0,96550.0,251392.0
50694.0,122419.0,96529.0,251403.0
50695.0,122447.0,96526.0,251379.0
50693.0,122454.0,96515.0,251367.0
50701.0,122453.0,96521.0,251336.0
50722.0,122453.0,96506.0,251354.0
50702.0,122491.0,96529.0,251390.0
50722.0,122501.0,96527.0,251369.0
50730.0,122517.0,96531.0,251339.0
50715.0,122558.0,96525.0,251379.0
50745.0,122574.0,96542.0,251372.0
50748.0,122594.0,96521.0,251348.0
50771.0,122618.0,96528.0,251352.0
50763.0,122644.0,96525.0,251373.0
50777.0,122653.0,96499.0,251385.0
50778.0,122692.0,96490.0,251371.0
50788.0,122699.0,96512.0,251360.0
50802.0,122720.0,96498.0,251364.0
50800.0,122737.0,96485.0,251340.0
50806.0,122738.0,96476.0,251375.0
50803.0,122761.0,96457.0,251330.0
50809.0,122791.0,96470.0,251323.0
50822.0,122819.0,96468.0,251351.0
50827.0,122855.0,96448.0,251315.0
50836.0,122849.0,96449.0,251291.0
50835.0,122876.0,96455.0,251326.0
50840.0,122871.0,96448.0,251295.0
50852.0,122874.0,96445.0,251300.0
50849.0,122916.0,96428.0,251327.0
50855.0,122932.0,96432.0,251332.0
50867.0,122933.0,96438.0,251314.0
50879.0,122972.0,96433.0,251284.0
50882.0,122978.0,96417.0,251306.0
50893.0,122983.0,96428.0,251283.0
50887.0,122968.0,96401.0,251257.0
50870.0,122929.0,96396.0,251197.0
50877.0,122928.0,96373.0,251168.0
50865.0,122898.0,96376.0,251148.0
50851.0,122860.0,96372.0,251121.0
50833.0,122809.0,96354.0,251095.0
50818.0,122781.0,96348.0,251064.0
50822.0,122759.0,96350.0,251032.0
50822.0,122704.0,96322.0,251006.0
50801.0,122671.0,96300.0,250988.0
50796.0,122651.0,96310.0,250955.0
50790.0,122609.0,96297.0,250929.0
50778.0,122602.0,96281.0,250916.0
50767.0,122586.0,96269.0,250914.0
50764.0,122558.0,96280.0,250865.0
50762.0,122561.0,96252.0,250862.0
50760.0,122536.0,96232.0,250867.0
50762.0,122511.0,96219.0,250849.0
50759.0,122512.0,96205.0,250811.0
50762.0,122491.0,96196.0,250770.0
50756.0,122501.0,96180.0,250801.0
50735.0,122493.0,96145.0,250768.0
50742.0,122490.0,96143.0,250709.0
50756.0,122486.0,96125.0,250682.0
50757.0,122489.0,96116.0,250676.0
50749.0,122490.0,96121.0,250728.0
50765.0,122495.0,96109.0,250698.0
50764.0,122501.0,96118.0,250613.0
50758.0,122514.0,96098.0,250618.0
50757.0,122488.0,96102.0,250619.0
50752.0,122503.0,96088.0,250610.0
50756.0,122491.0,96098.0,250604.0
50754.0,122483.0,96079.0,250588.0
50759.0,122486.0,96084.0,250537.0
50758.0,122485.0,96071.0,250578.0
50771.0,122468.0,96060.0,250603.0
50758.0,122484.0,96064.0,250569.0
50756.0,122481.0,96040.0,250486.0
50763.0,122489.0,96038.0,250518.0
50774.0,122490.0,96047.0,250524.0
50771.0,122483.0,96044.0,250503.0
50771.0,122504.0,96023.0,250511.0
50769.0,122485.0,96025.0,250490.0
50768.0,122495.0,96043.0,250484.0
50793.0,122498.0,96039.0,250500.0
50796.0,122526.0,96040.0,250516.0
50794.0,122560.0,96031.0,250540.0
50784.0,122563.0,96041.0,250480.0
50806.0,122585.0,96018.0,250522.0
50809.0,122580.0,96014.0,250503.0
50812.0,122613.0,96020.0,250514.0
50819.0,122625.0,95990.0,250499.0
50823.0,122626.0,96006.0,250505.0
50824.0,122660.0,95986.0,250500.0
50847.0,122686.0,96006.0,250456.0
50836.0,122683.0,95993.0,250490.0
50839.0,122692.0,95990.0,250466.0
50844.0,122712.0,95991.0,250472.0
50860.0,122736.0,95987.0,250453.0
50868.0,122752.0,95976.0,250436.0
50870.0,122784.0,95953.0,250477.0
50883.0,122818.0,95981.0,250444.0
50892.0,122823.0,95965.0,250461.0
50892.0,122834.0,95964.0,250469.0
50899.0,122861.0,95953.0,250455.0
50896.0,122859.0,95976.0,250464.0
50903.0,122880.0,95966.0,250430.0
50903.0,122877.0,95958.0,250454.0
50913.0,122864.0,95941.0,250441.0
50896.0,122861.0,95941.0,250365.0
50893.0,122827.0,95926.0,250357.0
50891.0,122768.0,95939.0,250305.0
50882.0,122750.0,95919.0,250303.0
50883.0,122717.0,95913.0,250247.0
50865.0,122708.0,95903.0,250232.0
50863.0,122673.0,95892.0,250227.0
50858.0,122642.0,95893.0,250214.0
50842.0,122630.0,95888.0,250191.0
50838.0,122589.0,95900.0,250209.0
50835.0,122591.0,95893.0,250185.0
50839.0,122584.0,95889.0,250198.0
50841.0,122570.0,95900.0,250232.0
50846.0,122583.0,95881.0,250229.0
50850.0,122569.0,95899.0,250222.0
50841.0,122571.0,95900.0,250213.0
50848.0,122587.0,95885.0,250223.0
50856.0,122579.0,95893.0,250180.0
50840.0,122603.0,95852.0,250176.0
50850.0,122594.0,95849.0,250148.0
50871.0,122636.0,95846.0,250150.0
50868.0,122634.0,95835.0,250118.0
50855.0,122657.0,95814.0,250109.0
50871.0,122672.0,95806.0,250076.0
50864.0,122679.0,95778.0,250032.0
50894.0,122711.0,95763.0,250011.0
50895.0,122739.0,95776.0,250022.0
50917.0,122776.0,95757.0,249965.0
50920.0,122802.0,95746.0,249926.0
50938.0,122851.0,95730.0,249906.0
50962.0,122862.0,95713.0,249839.0
50960.0,122910.0,95650.0,249821.0
50971.0,122948.0,95629.0,249779.0
50990.0,122982.0,95634.0,249723.0
51008.0,123006.0,95614.0,249690.0
51001.0,123028.0,95577.0,249671.0
51024.0,123089.0,95524.0,249645.0
51038.0,123085.0,95554.0,249611.0
51045.0,123127.0,95533.0,249612.0
51049.0,123145.0,95506.0,249569.0
51065.0,123163.0,95480.0,249534.0
51068.0,123174.0,95476.0,249537.0
51069.0,123203.0,95472.0,249533.0
51084.0,123236.0,95459.0,249508.0
51089.0,123247.0,95451.0,249518.0
51094.0,123286.0,95426.0,249499.0
51096.0,123305.0,95446.0,249527.0
51113.0,123330.0,95443.0,249510.0
51119.0,123339.0,95419.0,249513.0
51121.0,123380.0,95404.0,249476.0
51130.0,123396.0,95397.0,249481.0
51123.0,123410.0,95395.0,249425.0
51146.0,123441.0,95362.0,249428.0
51154.0,123432.0,95359.0,249391.0
51156.0,123467.0,95335.0,249386.0
51166.0,123484.0,95307.0,249390.0
51169.0,123520.0,95314.0,249380.0
51177.0,123524.0,95304.0,249337.0
51179.0,123543.0,95301.0,249402.0
51193.0,123560.0,95337.0,249351.0
51194.0,123586.0,95312.0,249406.0
51197.0,123591.0,95324.0,249431.0
51204.0,123614.0,95322.0,249407.0
51210.0,123649.0,95339.0,249405.0
51224.0,123646.0,95332.0,249398.0
51224.0,123652.0,95326.0,249386.0
51218.0,123655.0,95337.0,249382.0
51210.0,123620.0,95318.0,249351.0
51219.0,123616.0,95319.0,249345.0
51195.0,123597.0,95298.0,249298.0
51212.0,123532.0,95270.0,249234.0
51165.0,123506.0,95289.0,249199.0
51168.0,123498.0,95258.0,249201.0
51171.0,123496.0,95247.0,249178.0
51166.0,123432.0,95243.0,249152.0
51145.0,123400.0,95228.0,249080.0
51136.0,123391.0,95202.0,249052.0
51156.0,123341.0,95176.0,249021.0
51134.0,123338.0,95143.0,248995.0
51154.0,123335.0,95121.0,248997.0
51141.0,123339.0,95141.0,248946.0
51120.0,123328.0,95138.0,248968.0
51137.0,123336.0,95159.0,249055.0
51140.0,123334.0,95174.0,249016.0
51150.0,123345.0,95142.0,249020.0
51154.0,123355.0,95147.0,249006.0
51141.0,123371.0,95129.0,248995.0
51148.0,123331.0,95092.0,248976.0
51156.0,123379.0,95104.0,248953.0
51142.0,123360.0,95088.0,248945.0
51146.0,123371.0,95072.0,248925.0
51156.0,123376.0,95062.0,248889.0
