48246.0,116100.0,97460.0,255732.0
48264.0,116072.0,97458.0,255729.0
48204.0,116013.0,97468.0,255741.0
48159.0,115928.0,97468.0,255734.0
48109.0,115812.0,97477.0,255700.0
48079.0,115731.0,97459.0,255666.0
48046.0,115692.0,97479.0,255680.0
48017.0,115642.0,97482.0,255594.0
47989.0,115604.0,97471.0,255598.0
47979.0,115552.0,97452.0,255596.0
47951.0,115502.0,97488.0,255598.0
47895.0,115414.0,97483.0,255614.0
47846.0,115297.0,97468.0,255550.0
47791.0,115152.0,97453.0,255504.0
47691.0,114980.0,97400.0,255375.0
47616.0,114790.0,97345.0,255243.0
47546.0,114613.0,97292.0,255176.0
47474.0,114506.0,97267.0,255119.0
47424.0,114359.0,97214.0,255042.0
47381.0,114311.0,97184.0,254998.0
47350.0,114229.0,97160.0,254969.0
47314.0,114174.0,97123.0,254926.0
47310.0,114165.0,97115.0,254930.0
47308.0,114139.0,97101.0,254945.0
47289.0,114137.0,97078.0,254961.0
47300.0,114119.0,97075.0,254984.0
47294.0,114130.0,97075.0,255038.0
47287.0,114127.0,97091.0,255096.0
47281.0,114107.0,97088.0,255180.0
47272.0,114120.0,97086.0,255209.0
47283.0,114103.0,97080.0,255238.0
47276.0,114125.0,97084.0,255251.0
47282.0,114126.0,97100.0,255275.0
47306.0,114153.0,97092.0,255332.0
47288.0,114211.0,97104.0,255399.0
47304.0,114236.0,97133.0,255456.0
47310.0,114259.0,97140.0,255494.0
47317.0,114315.0,97137.0,255552.0
47334.0,114350.0,97139.0,255515.0
47344.0,114389.0,97127.0,255553.0
47362.0,114427.0,97124.0,255555.0
47354.0,114457.0,97118.0,255571.0
47375.0,114472.0,97137.0,255562.0
47404.0,114520.0,97132.0,255589.0
47406.0,114573.0,97111.0,255595.0
47402.0,114631.0,97109.0,255610.0
47436.0,114669.0,97131.0,255610.0
47440.0,114727.0,97132.0,255663.0
47467.0,114774.0,97135.0,255679.0
47480.0,114811.0,97142.0,255672.0
47481.0,114888.0,97144.0,255668.0
47519.0,114944.0,97133.0,255639.0
47539.0,115000.0,97127.0,255683.0
47546.0,115060.0,97132.0,255627.0
47580.0,115117.0,97123.0,255639.0
47597.0,115173.0,97131.0,255601.0
47616.0,115228.0,97123.0,255615.0
47613.0,115282.0,97113.0,255598.0
47646.0,115327.0,97125.0,255595.0
47649.0,115389.0,97121.0,255610.0
47679.0,115419.0,97113.0,255629.0
47706.0,115456.0,97144.0,255614.0
47712.0,115527.0,97094.0,255573.0
47734.0,115582.0,97097.0,255574.0
47743.0,115631.0,97104.0,255530.0
47763.0,115697.0,97097.0,255483.0
47781.0,115712.0,97098.0,255449.0
47784.0,115739.0,97068.0,255411.0
47787.0,115749.0,97048.0,255408.0
47783.0,115774.0,97055.0,255339.0
47790.0,115804.0,97043.0,255330.0
47793.0,115822.0,97050.0,255275.0
47789.0,115869.0,97051.0,255298.0
47794.0,115923.0,97045.0,255251.0
47818.0,115942.0,97066.0,255292.0
47824.0,116004.0,97062.0,255327.0
47830.0,116058.0,97073.0,255314.0
47848.0,116117.0,97080.0,255330.0
47859.0,116164.0,97090.0,255340.0
47872.0,116242.0,97085.0,255354.0
47886.0,116297.0,97098.0,255413.0
47901.0,116358.0,97131.0,255428.0
47929.0,116428.0,97126.0,255452.0
47941.0,116501.0,97140.0,255502.0
47965.0,116549.0,97147.0,255525.0
47967.0,116605.0,97134.0,255513.0
47989.0,116680.0,97144.0,255563.0
48014.0,116755.0,97190.0,255580.0
48028.0,116812.0,97184.0,255586.0
48031.0,116871.0,97189.0,255583.0
48070.0,116948.0,97220.0,255591.0
48078.0,117041.0,97230.0,255599.0
48083.0,117085.0,97233.0,255605.0
48099.0,117198.0,97246.0,255623.0
48103.0,117289.0,97267.0,255665.0
48116.0,117372.0,97263.0,255666.0
48121.0,117428.0,97289.0,255701.0
48138.0,117515.0,97310.0,255683.0
48135.0,117584.0,97287.0,255674.0
48143.0,117632.0,97288.0,255654.0
48184.0,117677.0,97270.0,255671.0
48218.0,117718.0,97269.0,255645.0
48220.0,117765.0,97250.0,255653.0
48244.0,117811.0,97244.0,255670.0
48257.0,117855.0,97243.0,255646.0
48287.0,117897.0,97241.0,255657.0
48295.0,117944.0,97217.0,255632.0
48320.0,117985.0,97222.0,255691.0
48351.0,118038.0,97240.0,255682.0
48379.0,118097.0,97241.0,255724.0
48387.0,118145.0,97262.0,255710.0
48414.0,118196.0,97251.0,255749.0
48423.0,118242.0,97256.0,255772.0
48437.0,118276.0,97275.0,255763.0
48455.0,118319.0,97266.0,255741.0
48488.0,118374.0,97246.0,255781.0
48471.0,118423.0,97252.0,255790.0
48502.0,118475.0,97240.0,255802.0
48505.0,118525.0,97278.0,255814.0
48500.0,118551.0,97258.0,255815.0
48537.0,118613.0,97265.0,255858.0
48543.0,118671.0,97246.0,255813.0
48545.0,118693.0,97258.0,255815.0
48533.0,118724.0,97219.0,255754.0
48571.0,118747.0,97220.0,255726.0
48584.0,118776.0,97211.0,255687.0
48595.0,118775.0,97199.0,255639.0
48607.0,118790.0,97199.0,255616.0
48609.0,118821.0,97187.0,255605.0
48619.0,118847.0,97172.0,255635.0
48635.0,118855.0,97194.0,255598.0
48656.0,118882.0,97175.0,255584.0
48661.0,118908.0,97178.0,255564.0
48672.0,118946.0,97167.0,255570.0
48687.0,118963.0,97162.0,255566.0
48697.0,118983.0,97183.0,255572.0
48717.0,119053.0,97203.0,255590.0
48720.0,119067.0,97171.0,255578.0
48745.0,119091.0,97173.0,255593.0
48755.0,119110.0,97153.0,255604.0
48764.0,119141.0,97165.0,255598.0
48782.0,119186.0,97172.0,255611.0
48792.0,119215.0,97168.0,255617.0
48806.0,119226.0,97171.0,255643.0
48823.0,119254.0,97189.0,255602.0
48835.0,119302.0,97180.0,255643.0
48847.0,119309.0,97202.0,255666.0
48862.0,119336.0,97187.0,255634.0
48875.0,119358.0,97188.0,255661.0
48882.0,119386.0,97178.0,255606.0
48903.0,119382.0,97183.0,255606.0
48911.0,119407.0,97148.0,255593.0
48906.0,119403.0,97166.0,255596.0
48906.0,119423.0,97131.0,255596.0
48925.0,119419.0,97140.0,255581.0
48936.0,119440.0,97175.0,255620.0
48947.0,119471.0,97164.0,255611.0
48960.0,119475.0,97143.0,255598.0
48960.0,119491.0,97166.0,255656.0
48979.0,119514.0,97139.0,255646.0
48983.0,119548.0,97156.0,255625.0
48999.0,119583.0,97152.0,255622.0
49034.0,119607.0,97145.0,255586.0
49076.0,119670.0,97127.0,255482.0
49117.0,119778.0,97062.0,255367.0
49165.0,119831.0,97090.0,255299.0
49201.0,119912.0,97044.0,255221.0
49243.0,119982.0,97041.0,255202.0
49243.0,119993.0,97035.0,255168.0
49259.0,120030.0,97014.0,255171.0
49277.0,120019.0,97034.0,255127.0
49293.0,120021.0,97031.0,255163.0
49286.0,120023.0,97025.0,255132.0
49293.0,120024.0,97033.0,255129.0
49295.0,120036.0,97020.0,255122.0
49290.0,120014.0,97022.0,255119.0
49292.0,120003.0,97015.0,255103.0
49271.0,120008.0,97004.0,255136.0
49280.0,119992.0,97010.0,255159.0
49258.0,119958.0,97031.0,255137.0
49274.0,119956.0,97010.0,255171.0
49285.0,119960.0,97013.0,255109.0
49287.0,119950.0,97007.0,255115.0
49301.0,119957.0,96998.0,255108.0
49301.0,119978.0,96989.0,255082.0
49328.0,119991.0,96978.0,255122.0
49318.0,120015.0,96967.0,255024.0
49346.0,120029.0,96955.0,254988.0
49340.0,120031.0,96930.0,254991.0
49329.0,120047.0,96954.0,254954.0
49344.0,120006.0,96950.0,254941.0
49335.0,120045.0,96967.0,254927.0
49345.0,120016.0,96957.0,254908.0
49316.0,120026.0,96955.0,254908.0
49340.0,120004.0,96935.0,254879.0
49348.0,119982.0,96945.0,254866.0
49336.0,119986.0,96953.0,254861.0
49310.0,119953.0,96953.0,254938.0
49316.0,119973.0,96956.0,254903.0
49308.0,119930.0,96961.0,254942.0
49310.0,119911.0,96946.0,254964.0
49305.0,119902.0,96958.0,254959.0
49292.0,119887.0,96954.0,254945.0
49307.0,119878.0,96951.0,255000.0
49400.0,119880.0,96972.0,254998.0
49293.0,119868.0,96955.0,255006.0
49293.0,119858.0,96945.0,255021.0
49296.0,119842.0,96966.0,254998.0
49295.0,119822.0,96975.0,255033.0
49271.0,119808.0,96957.0,255002.0
49270.0,119788.0,96947.0,255003.0
49272.0,119769.0,96943.0,254988.0
49257.0,119741.0,96930.0,255011.0
49277.0,119743.0,96947.0,255015.0
49268.0,119726.0,96941.0,255001.0
49265.0,119735.0,96942.0,255027.0
49260.0,119703.0,96952.0,255043.0
49236.0,119704.0,96948.0,255039.0
49233.0,119677.0,96940.0,255052.0
49237.0,119638.0,96949.0,255086.0
49220.0,119629.0,96920.0,255122.0
49208.0,119590.0,96904.0,255051.0
49217.0,119592.0,96941.0,255114.0
49210.0,119578.0,96920.0,255138.0
49215.0,119584.0,96930.0,255094.0
49205.0,119590.0,96931.0,255139.0
49222.0,119586.0,96926.0,255115.0
49193.0,119586.0,96922.0,255138.0
49196.0,119548.0,96905.0,255107.0
49191.0,119550.0,96908.0,255099.0
49193.0,119529.0,96877.0,255060.0
49177.0,119530.0,96858.0,255038.0
49174.0,119507.0,96842.0,255004.0
49177.0,119490.0,96851.0,255001.0
49171.0,119483.0,96841.0,254979.0
49175.0,119487.0,96816.0,254987.0
49174.0,119477.0,96822.0,255008.0
49169.0,119476.0,96820.0,255022.0
49161.0,119494.0,96796.0,254983.0
49162.0,119493.0,96810.0,254992.0
49164.0,119506.0,96779.0,255028.0
49172.0,119517.0,96813.0,255049.0
49182.0,119514.0,96819.0,255065.0
49185.0,119536.0,96823.0,255070.0
49169.0,119538.0,96830.0,255108.0
49188.0,119559.0,96823.0,255107.0
49186.0,119597.0,96806.0,255128.0
49209.0,119630.0,96823.0,255107.0
49213.0,119664.0,96810.0,255108.0
49226.0,119680.0,96820.0,255105.0
49234.0,119681.0,96818.0,255062.0
49245.0,119679.0,96799.0,255063.0
49235.0,119688.0,96792.0,255069.0
49236.0,119692.0,96779.0,255037.0
49239.0,119700.0,96765.0,255004.0
49248.0,119733.0,96746.0,254961.0
49236.0,119736.0,96770.0,254948.0
49250.0,119737.0,96759.0,254916.0
49236.0,119765.0,96757.0,254931.0
49248.0,119772.0,96754.0,254926.0
49275.0,119777.0,96752.0,254953.0
49262.0,119799.0,96749.0,254951.0
49251.0,119810.0,96771.0,254996.0
49271.0,119825.0,96773.0,254951.0
49280.0,119873.0,96778.0,254969.0
49289.0,119869.0,96770.0,254964.0
49303.0,119900.0,96771.0,254982.0
49315.0,119892.0,96765.0,254968.0
49313.0,119934.0,96771.0,254983.0
49325.0,119913.0,96775.0,255011.0
49320.0,119936.0,96752.0,254974.0
49355.0,119971.0,96754.0,255007.0
49356.0,119991.0,96758.0,254950.0
49380.0,119984.0,96747.0,254966.0
49378.0,119988.0,96762.0,254954.0
49393.0,119992.0,96723.0,254953.0
49385.0,119977.0,96735.0,254970.0
49391.0,119983.0,96727.0,254931.0
49420.0,119994.0,96743.0,254957.0
49396.0,119961.0,96716.0,254935.0
49405.0,119957.0,96724.0,254923.0
49389.0,119951.0,96710.0,254902.0
49386.0,119947.0,96704.0,254909.0
49391.0,119942.0,96699.0,254914.0
49411.0,119933.0,96697.0,254923.0
49401.0,119934.0,96708.0,254915.0
49406.0,119942.0,96725.0,254987.0
49408.0,119937.0,96714.0,254927.0
49402.0,119941.0,96716.0,254952.0
49434.0,119981.0,96714.0,254918.0
49404.0,119960.0,96727.0,254973.0
49396.0,119971.0,96715.0,255010.0
49399.0,119978.0,96755.0,254992.0
49428.0,119995.0,96744.0,254985.0
49427.0,120031.0,96751.0,254978.0
49438.0,120034.0,96752.0,255033.0
49434.0,120065.0,96765.0,255040.0
49441.0,120090.0,96775.0,255078.0
49443.0,120096.0,96762.0,255082.0
49454.0,120120.0,96772.0,255085.0
49459.0,120123.0,96771.0,255113.0
49463.0,120145.0,96791.0,255095.0
49467.0,120167.0,96782.0,255113.0
49469.0,120185.0,96777.0,255141.0
49487.0,120218.0,96795.0,255157.0
49494.0,120226.0,96782.0,255172.0
49507.0,120245.0,96804.0,255157.0
49507.0,120277.0,96797.0,255178.0
49507.0,120273.0,96801.0,255174.0
49515.0,120292.0,96800.0,255220.0
49523.0,120313.0,96802.0,255182.0
49538.0,120324.0,96787.0,255181.0
49551.0,120362.0,96802.0,255162.0
49572.0,120381.0,96796.0,255178.0
49572.0,120389.0,96791.0,255190.0
49576.0,120414.0,96770.0,255168.0
49582.0,120383.0,96766.0,255152.0
49589.0,120418.0,96741.0,255125.0
49604.0,120429.0,96763.0,255057.0
49617.0,120417.0,96744.0,255099.0
49630.0,120436.0,96724.0,255060.0
49631.0,120463.0,96727.0,255091.0
49631.0,120472.0,96748.0,255093.0
49640.0,120466.0,96714.0,255037.0
49655.0,120456.0,96727.0,255087.0
49641.0,120433.0,96714.0,255048.0
49658.0,120436.0,96689.0,254991.0
49643.0,120416.0,96689.0,255008.0
49635.0,120413.0,96676.0,254976.0
49630.0,120394.0,96659.0,254944.0
49617.0,120365.0,96651.0,254924.0
49622.0,120346.0,96644.0,254870.0
49615.0,120336.0,96641.0,254833.0
49605.0,120316.0,96632.0,254815.0
49622.0,120292.0,96633.0,254777.0
49612.0,120313.0,96644.0,254827.0
49614.0,120314.0,96634.0,254813.0
49616.0,120308.0,96634.0,254835.0
49633.0,120329.0,96659.0,254833.0
49621.0,120326.0,96644.0,254843.0
49614.0,120338.0,96685.0,254952.0
49634.0,120378.0,96646.0,254846.0
49645.0,120379.0,96665.0,254836.0
49641.0,120402.0,96661.0,254872.0
49633.0,120411.0,96662.0,254886.0
49648.0,120435.0,96684.0,254882.0
49636.0,120405.0,96681.0,254919.0
49640.0,120427.0,96673.0,254915.0
49662.0,120446.0,96676.0,254970.0
49653.0,120446.0,96680.0,254923.0
49660.0,120449.0,96676.0,254973.0
49669.0,120459.0,96667.0,254926.0
49655.0,120483.0,96682.0,254973.0
49664.0,120491.0,96685.0,254944.0
49695.0,120518.0,96675.0,254949.0
49701.0,120552.0,96695.0,254938.0
49701.0,120559.0,96690.0,254971.0
49699.0,120549.0,96704.0,255085.0
49709.0,120589.0,96682.0,254945.0
49730.0,120609.0,96693.0,254983.0
49729.0,120606.0,96671.0,254968.0
49738.0,120605.0,96687.0,254954.0
49738.0,120603.0,96693.0,254960.0
49743.0,120601.0,96691.0,254954.0
49739.0,120598.0,96684.0,254969.0
49749.0,120603.0,96700.0,254951.0
49748.0,120651.0,96680.0,254986.0
49747.0,120639.0,96706.0,255017.0
49763.0,120626.0,96703.0,254988.0
49752.0,120653.0,96713.0,255032.0
49761.0,120642.0,96724.0,255058.0
49771.0,120655.0,96741.0,255025.0
49755.0,120652.0,96737.0,255037.0
49765.0,120663.0,96720.0,255075.0
49792.0,120692.0,96724.0,255082.0
49775.0,120685.0,96736.0,255104.0
49791.0,120729.0,96731.0,255088.0
49786.0,120700.0,96747.0,255066.0
49780.0,120722.0,96743.0,255088.0
49772.0,120718.0,96750.0,255139.0
49776.0,120720.0,96745.0,255095.0
49782.0,120737.0,96753.0,255121.0
49787.0,120741.0,96793.0,255168.0
49793.0,120762.0,96755.0,255135.0
49807.0,120777.0,96780.0,255175.0
49805.0,120793.0,96790.0,255204.0
49793.0,120803.0,96803.0,255199.0
49818.0,120805.0,96773.0,255208.0
49822.0,120818.0,96787.0,255160.0
49818.0,120834.0,96787.0,255200.0
49820.0,120821.0,96769.0,255189.0
49835.0,120881.0,96783.0,255213.0
49818.0,120849.0,96772.0,255219.0
49833.0,120858.0,96786.0,255228.0
49825.0,120878.0,96778.0,255231.0
49827.0,120892.0,96781.0,255214.0
49831.0,120883.0,96801.0,255224.0
49841.0,120885.0,96794.0,255212.0
49832.0,120906.0,96776.0,255196.0
49833.0,120902.0,96786.0,255241.0
49826.0,120896.0,96783.0,255217.0
49835.0,120902.0,96777.0,255212.0
49827.0,120913.0,96763.0,255222.0
49839.0,120908.0,96753.0,255159.0
49845.0,120900.0,96731.0,255145.0
49841.0,120895.0,96727.0,255082.0
49838.0,120913.0,96719.0,255059.0
49843.0,120919.0,96728.0,255089.0
49842.0,120906.0,96720.0,255103.0
49867.0,120948.0,96731.0,255069.0
49879.0,120969.0,96725.0,255069.0
49891.0,120994.0,96744.0,255130.0
49918.0,121009.0,96767.0,255127.0
49896.0,121036.0,96772.0,255165.0
49897.0,121052.0,96784.0,255200.0
49896.0,121060.0,96795.0,255186.0
49888.0,121068.0,96805.0,255211.0
49893.0,121048.0,96798.0,255220.0
49884.0,121052.0,96794.0,255234.0
49896.0,121048.0,96783.0,255216.0
49900.0,121075.0,96804.0,255207.0
49907.0,121084.0,96808.0,255268.0
49927.0,121113.0,96791.0,255289.0
49927.0,121137.0,96814.0,255302.0
49929.0,121175.0,96820.0,255307.0
49930.0,121186.0,96822.0,255364.0
49922.0,121199.0,96830.0,255315.0
49950.0,121228.0,96839.0,255358.0
49939.0,121227.0,96827.0,255344.0
49942.0,121229.0,96850.0,255336.0
49952.0,121239.0,96835.0,255340.0
49950.0,121263.0,96840.0,255344.0
49962.0,121307.0,96843.0,255335.0
49962.0,121320.0,96821.0,255333.0
49963.0,121332.0,96849.0,255362.0
49979.0,121368.0,96864.0,255395.0
49984.0,121382.0,96853.0,255400.0
50000.0,121394.0,96873.0,255405.0
50002.0,121420.0,96877.0,255412.0
49995.0,121446.0,96866.0,255428.0
50010.0,121470.0,96887.0,255418.0
50043.0,121483.0,96891.0,255449.0
50030.0,121517.0,96891.0,255448.0
50041.0,121547.0,96896.0,255453.0
50044.0,121566.0,96914.0,255444.0
50059.0,121583.0,96897.0,255502.0
50065.0,121650.0,96909.0,255478.0
50080.0,121638.0,96934.0,255512.0
50097.0,121686.0,96935.0,255512.0
50117.0,121702.0,96957.0,255508.0
50134.0,121778.0,96973.0,255547.0
50163.0,121847.0,96997.0,255583.0
50190.0,121949.0,97044.0,255702.0
50230.0,122043.0,97139.0,255812.0
50265.0,122147.0,97217.0,255953.0
50290.0,122221.0,97273.0,256134.0
50291.0,122260.0,97347.0,256205.0
50304.0,122286.0,97388.0,256347.0
50311.0,122307.0,97407.0,256360.0
50317.0,122316.0,97408.0,256388.0
50318.0,122321.0,97423.0,256419.0
50309.0,122323.0,97438.0,256407.0
50318.0,122342.0,97436.0,256428.0
50318.0,122362.0,97458.0,256483.0
50341.0,122367.0,97477.0,256485.0
50332.0,122377.0,97510.0,256574.0
50357.0,122408.0,97532.0,256585.0
50349.0,122414.0,97556.0,256640.0
50345.0,122389.0,97551.0,256675.0
50347.0,122404.0,97573.0,256674.0
50347.0,122411.0,97557.0,256736.0
50353.0,122401.0,97561.0,256726.0
50342.0,122408.0,97563.0,256737.0
50339.0,122405.0,97574.0,256747.0
50343.0,122413.0,97578.0,256753.0
50337.0,122432.0,97585.0,256788.0
50366.0,122486.0,97627.0,256829.0
50372.0,122509.0,97658.0,256921.0
50383.0,122551.0,97698.0,256977.0
50404.0,122565.0,97744.0,257008.0
50412.0,122582.0,97773.0,257116.0
50412.0,122637.0,97818.0,257164.0
50409.0,122620.0,97856.0,257246.0
50428.0,122648.0,97893.0,257285.0
50404.0,122640.0,97934.0,257343.0
50411.0,122633.0,97959.0,257360.0
50422.0,122628.0,97979.0,257437.0
50417.0,122628.0,97981.0,257484.0
50425.0,122644.0,98004.0,257496.0
50427.0,122640.0,98046.0,257564.0
50442.0,122637.0,98065.0,257593.0
50439.0,122640.0,98070.0,257610.0
50442.0,122645.0,98084.0,257651.0
50429.0,122634.0,98097.0,257649.0
50453.0,122644.0,98127.0,257682.0
50448.0,122695.0,98137.0,257735.0
50460.0,122722.0,98167.0,257773.0
50496.0,122738.0,98194.0,257838.0
50478.0,122746.0,98201.0,257843.0
50505.0,122772.0,98194.0,257862.0
50509.0,122812.0,98201.0,257852.0
50510.0,122840.0,98209.0,257864.0
50544.0,122853.0,98196.0,257854.0
50547.0,122890.0,98201.0,257836.0
