320310.0,458007.0,226156.0,329103.0
321096.0,459229.0,226585.0,329679.0
321953.0,460387.0,227004.0,330169.0
322746.0,461533.0,227261.0,330539.0
323531.0,462512.0,227435.0,330793.0
324239.0,463548.0,227601.0,331087.0
325132.0,464662.0,227784.0,331359.0
326087.0,465996.0,228039.0,331609.0
327108.0,467351.0,228359.0,331915.0
328151.0,468902.0,228686.0,332308.0
329248.0,470304.0,228938.0,332560.0
330164.0,471574.0,229100.0,332772.0
331039.0,472726.0,229182.0,332901.0
331849.0,473874.0,229240.0,332958.0
332560.0,474809.0,229247.0,333068.0
333284.0,475826.0,229283.0,333146.0
334028.0,476891.0,229398.0,333344.0
334827.0,478017.0,229552.0,333447.0
335549.0,479041.0,229633.0,333605.0
336259.0,480052.0,229632.0,333650.0
336750.0,480838.0,229505.0,333560.0
337197.0,481401.0,229352.0,333412.0
337520.0,481878.0,229159.0,333186.0
337745.0,482212.0,228928.0,333044.0
338042.0,482544.0,228803.0,332963.0
338413.0,483034.0,228825.0,332984.0
338703.0,483436.0,228693.0,332866.0
339011.0,483856.0,228573.0,332829.0
339244.0,484339.0,228559.0,332737.0
339470.0,484503.0,228545.0,332708.0
339623.0,484706.0,228448.0,332622.0
339738.0,484849.0,228287.0,332387.0
339759.0,484825.0,228078.0,332127.0
339777.0,484820.0,227918.0,331823.0
339729.0,484700.0,227632.0,331543.0
339676.0,484592.0,227301.0,331275.0
339636.0,484468.0,227021.0,330976.0
339585.0,484345.0,226762.0,330803.0
339541.0,484346.0,226548.0,330599.0
339453.0,484178.0,226213.0,330244.0
339367.0,483938.0,225907.0,329902.0
339203.0,483767.0,225591.0,329568.0
339082.0,483511.0,225305.0,329274.0
338967.0,483364.0,225125.0,329106.0
338877.0,483243.0,225061.0,328965.0
338799.0,483190.0,224917.0,328807.0
338727.0,483200.0,224715.0,328659.0
338678.0,483049.0,224470.0,328366.0
338616.0,482879.0,224277.0,328120.0
338526.0,482850.0,224162.0,327990.0
338477.0,482789.0,224051.0,327929.0
338375.0,482725.0,223936.0,327789.0
338345.0,482669.0,223807.0,327717.0
338205.0,482545.0,223668.0,327570.0
338124.0,482440.0,223493.0,327322.0
338011.0,482355.0,223415.0,327228.0
337906.0,482200.0,223330.0,327125.0
337827.0,482156.0,223221.0,327032.0
337792.0,482022.0,223162.0,326967.0
337725.0,481936.0,223135.0,326935.0
337661.0,481958.0,223142.0,326984.0
337656.0,481930.0,223173.0,327010.0
337653.0,481959.0,223108.0,327020.0
337656.0,481992.0,223056.0,327025.0
337663.0,481987.0,222991.0,326998.0
337585.0,482013.0,222928.0,326952.0
337607.0,481962.0,222840.0,326917.0
337556.0,481895.0,222865.0,326987.0
337531.0,481789.0,222846.0,326909.0
337423.0,481637.0,222826.0,326906.0
337289.0,481470.0,222901.0,326927.0
337205.0,481195.0,222931.0,326937.0
337060.0,480919.0,222920.0,326793.0
336861.0,480638.0,222845.0,326731.0
336599.0,480295.0,222792.0,326680.0
336394.0,479925.0,222737.0,326629.0
336187.0,479630.0,222657.0,326614.0
336023.0,479353.0,222706.0,326646.0
335900.0,479105.0,222743.0,326703.0
335774.0,478953.0,222701.0,326753.0
335651.0,478793.0,222699.0,326765.0
335576.0,478658.0,222698.0,326746.0
335477.0,478482.0,222643.0,326801.0
335334.0,478242.0,222566.0,326705.0
335241.0,478016.0,222551.0,326707.0
335044.0,477889.0,222602.0,326757.0
335002.0,477744.0,222644.0,326785.0
334941.0,477692.0,222731.0,326868.0
334911.0,477683.0,222841.0,326975.0
334962.0,477693.0,222873.0,326988.0
334891.0,477727.0,222891.0,327006.0
334903.0,477726.0,222981.0,327078.0
334895.0,477745.0,223078.0,327173.0
334946.0,477755.0,223125.0,327236.0
334967.0,477811.0,223213.0,327300.0
334983.0,477857.0,223235.0,327324.0
335031.0,477887.0,223273.0,327339.0
335027.0,477899.0,223263.0,327329.0
334994.0,477900.0,223301.0,327311.0
335033.0,477962.0,223285.0,327265.0
335070.0,477922.0,223256.0,327247.0
335019.0,477894.0,223190.0,327223.0
335039.0,477924.0,223152.0,327150.0
335017.0,477932.0,223195.0,327183.0
335055.0,477906.0,223158.0,327153.0
335048.0,477902.0,223105.0,327088.0
335068.0,477937.0,223069.0,326993.0
335015.0,477893.0,223006.0,326934.0
334983.0,477865.0,222868.0,326847.0
335007.0,477812.0,222874.0,326741.0
334962.0,477841.0,222865.0,326736.0
335003.0,477881.0,222882.0,326758.0
335025.0,477980.0,222930.0,326730.0
334987.0,477873.0,222831.0,326675.0
334987.0,477857.0,222801.0,326549.0
334924.0,477721.0,222636.0,326455.0
334844.0,477633.0,222513.0,326294.0
334791.0,477524.0,222453.0,326203.0
334688.0,477357.0,222367.0,326117.0
334633.0,477236.0,222324.0,326061.0
334660.0,477248.0,222384.0,326136.0
334576.0,477170.0,222370.0,326170.0
334566.0,477179.0,222280.0,326156.0
334544.0,477082.0,222244.0,326059.0
334547.0,477066.0,222223.0,326086.0
334592.0,477184.0,222260.0,326182.0
334626.0,477231.0,222316.0,326225.0
334610.0,477260.0,222317.0,326179.0
334617.0,477181.0,222206.0,326108.0
334568.0,477228.0,222229.0,326079.0
334593.0,477178.0,222209.0,326112.0
334645.0,477235.0,222263.0,326175.0
334665.0,477280.0,222306.0,326205.0
334698.0,477343.0,222363.0,326239.0
334703.0,477424.0,222414.0,326296.0
334753.0,477465.0,222484.0,326359.0
334773.0,477500.0,222526.0,326401.0
334827.0,477571.0,222540.0,326426.0
334889.0,477722.0,222576.0,326456.0
334884.0,477757.0,222555.0,326458.0
334952.0,477923.0,222602.0,326523.0
335047.0,478053.0,222702.0,326627.0
335193.0,478259.0,222767.0,326704.0
335258.0,478468.0,222817.0,326817.0
335335.0,478588.0,222819.0,326822.0
335377.0,478725.0,222821.0,326824.0
335527.0,478850.0,222857.0,326875.0
335555.0,479018.0,222885.0,326909.0
335605.0,479082.0,222924.0,326919.0
335737.0,479284.0,222957.0,326956.0
335853.0,479477.0,223047.0,327070.0
335925.0,479660.0,223117.0,327153.0
336082.0,479900.0,223166.0,327221.0
336177.0,480094.0,223179.0,327285.0
336258.0,480159.0,223155.0,327299.0
336370.0,480329.0,223212.0,327338.0
336399.0,480410.0,223190.0,327386.0
336460.0,480510.0,223216.0,327443.0
336577.0,480606.0,223336.0,327489.0
336654.0,480880.0,223427.0,327572.0
336751.0,481019.0,223458.0,327683.0
336877.0,481166.0,223479.0,327697.0
336858.0,481239.0,223469.0,327669.0
336887.0,481222.0,223405.0,327651.0
336936.0,481221.0,223386.0,327626.0
336927.0,481111.0,223377.0,327578.0
336887.0,481044.0,223438.0,327645.0
336851.0,480917.0,223443.0,327684.0
336769.0,480796.0,223484.0,327713.0
336706.0,480615.0,223512.0,327727.0
336629.0,480444.0,223546.0,327750.0
336505.0,480176.0,223545.0,327703.0
336353.0,479950.0,223500.0,327686.0
336293.0,479744.0,223483.0,327607.0
336177.0,479474.0,223463.0,327619.0
335992.0,479303.0,223495.0,327631.0
335941.0,479090.0,223552.0,327626.0
335920.0,479058.0,223598.0,327703.0
335840.0,478973.0,223601.0,327754.0
335858.0,478873.0,223686.0,327777.0
335874.0,478854.0,223738.0,327827.0
335776.0,478782.0,223704.0,327835.0
335730.0,478663.0,223616.0,327740.0
335674.0,478475.0,223587.0,327661.0
335567.0,478344.0,223618.0,327649.0
335538.0,478224.0,223586.0,327584.0
335453.0,478095.0,223571.0,327568.0
335461.0,477967.0,223583.0,327510.0
335358.0,477970.0,223651.0,327541.0
335377.0,477897.0,223658.0,327553.0
335348.0,477772.0,223645.0,327548.0
335337.0,477810.0,223622.0,327510.0
335303.0,477741.0,223548.0,327471.0
335253.0,477681.0,223578.0,327453.0
335271.0,477695.0,223603.0,327484.0
335248.0,477756.0,223726.0,327563.0
335314.0,477832.0,223830.0,327631.0
335349.0,477933.0,223815.0,327690.0
335377.0,477912.0,223841.0,327681.0
335329.0,477891.0,223821.0,327631.0
335311.0,477901.0,223789.0,327613.0
335334.0,477790.0,223751.0,327585.0
335328.0,477789.0,223757.0,327620.0
335324.0,477840.0,223745.0,327588.0
335287.0,477785.0,223767.0,327617.0
335282.0,477795.0,223735.0,327579.0
335237.0,477702.0,223737.0,327591.0
335247.0,477702.0,223682.0,327553.0
335236.0,477575.0,223590.0,327492.0
335137.0,477439.0,223499.0,327364.0
335090.0,477388.0,223375.0,327251.0
335023.0,477245.0,223339.0,327206.0
334981.0,477138.0,223334.0,327198.0
334955.0,477097.0,223327.0,327221.0
334896.0,476997.0,223350.0,327212.0
334812.0,476880.0,223382.0,327310.0
334846.0,476915.0,223437.0,327339.0
334879.0,476877.0,223456.0,327346.0
334820.0,476787.0,223401.0,327296.0
334833.0,476758.0,223453.0,327332.0
334791.0,476721.0,223446.0,327353.0
334827.0,476686.0,223444.0,327273.0
334827.0,476801.0,223460.0,327372.0
334794.0,476722.0,223444.0,327338.0
334838.0,476745.0,223442.0,327333.0
334863.0,476726.0,223422.0,327261.0
334872.0,476815.0,223410.0,327248.0
334894.0,476805.0,223461.0,327321.0
334935.0,476842.0,223456.0,327288.0
335000.0,476920.0,223509.0,327362.0
335039.0,477038.0,223516.0,327399.0
335127.0,477161.0,223550.0,327396.0
335197.0,477273.0,223600.0,327440.0
335270.0,477346.0,223644.0,327456.0
335344.0,477446.0,223652.0,327498.0
335419.0,477521.0,223681.0,327498.0
335447.0,477616.0,223613.0,327452.0
335510.0,477724.0,223638.0,327457.0
335579.0,477860.0,223614.0,327513.0
335691.0,478001.0,223652.0,327550.0
335751.0,478095.0,223641.0,327504.0
335818.0,478143.0,223598.0,327457.0
335890.0,478182.0,223544.0,327428.0
335895.0,478252.0,223520.0,327404.0
335934.0,478368.0,223555.0,327409.0
336024.0,478476.0,223608.0,327490.0
336117.0,478634.0,223608.0,327541.0
336197.0,478745.0,223622.0,327587.0
336333.0,478999.0,223691.0,327651.0
336443.0,479100.0,223724.0,327712.0
336598.0,479372.0,223737.0,327811.0
336692.0,479629.0,223807.0,327846.0
336783.0,479766.0,223812.0,327888.0
336899.0,479926.0,223799.0,327885.0
336966.0,480176.0,223796.0,327880.0
337065.0,480291.0,223809.0,327925.0
337143.0,480364.0,223811.0,327890.0
337174.0,480503.0,223826.0,327937.0
337292.0,480602.0,223839.0,327979.0
337393.0,480752.0,223828.0,328005.0
337502.0,480943.0,223869.0,328033.0
337585.0,481117.0,223881.0,328116.0
337667.0,481334.0,223949.0,328199.0
337802.0,481508.0,223958.0,328166.0
337964.0,481719.0,224005.0,328231.0
338057.0,481869.0,224027.0,328339.0
338138.0,482101.0,224037.0,328325.0
338191.0,482138.0,224099.0,328344.0
338231.0,482238.0,224217.0,328531.0
338284.0,482235.0,224428.0,328766.0
338311.0,482276.0,224586.0,328925.0
338297.0,482240.0,224716.0,329146.0
338331.0,482227.0,224852.0,329256.0
338263.0,482267.0,224916.0,329373.0
338301.0,482149.0,225023.0,329502.0
338250.0,482097.0,225013.0,329513.0
338267.0,482012.0,225028.0,329521.0
338210.0,481994.0,225036.0,329530.0
338237.0,481966.0,225063.0,329543.0
338195.0,481870.0,225005.0,329524.0
338133.0,481784.0,224950.0,329466.0
338062.0,481696.0,224900.0,329464.0
338087.0,481625.0,224929.0,329487.0
338066.0,481627.0,224971.0,329514.0
338083.0,481665.0,225033.0,329570.0
338052.0,481565.0,225009.0,329604.0
338051.0,481450.0,224933.0,329528.0
337949.0,481326.0,224845.0,329438.0
337907.0,481192.0,224690.0,329274.0
337766.0,480936.0,224454.0,329020.0
337621.0,480705.0,224147.0,328688.0
337419.0,480371.0,223900.0,328440.0
337242.0,480125.0,223881.0,328376.0
337180.0,479809.0,223848.0,328317.0
337025.0,479638.0,223796.0,328225.0
336853.0,479395.0,223686.0,328150.0
336760.0,479154.0,223677.0,328047.0
336629.0,478944.0,223598.0,327967.0
336496.0,478642.0,223455.0,327741.0
336248.0,478275.0,223233.0,327470.0
336087.0,477975.0,222906.0,327187.0
335832.0,477497.0,222599.0,326827.0
335590.0,477070.0,222265.0,326497.0
335364.0,476626.0,221975.0,326108.0
335148.0,476242.0,221732.0,325860.0
334949.0,475848.0,221576.0,325653.0
334731.0,475465.0,221439.0,325471.0
334482.0,475125.0,221379.0,325352.0
334383.0,474841.0,221259.0,325234.0
334188.0,474612.0,221220.0,325131.0
334060.0,474370.0,221190.0,325086.0
333952.0,474122.0,221141.0,324984.0
333790.0,473893.0,221065.0,324864.0
333707.0,473718.0,221021.0,324798.0
333626.0,473542.0,221037.0,324735.0
333496.0,473403.0,220992.0,324634.0
333397.0,473192.0,220963.0,324590.0
333309.0,473110.0,220995.0,324562.0
333243.0,472945.0,221045.0,324577.0
333138.0,472847.0,221007.0,324499.0
333079.0,472699.0,221057.0,324519.0
333054.0,472624.0,221101.0,324567.0
333050.0,472554.0,221220.0,324639.0
332998.0,472481.0,221318.0,324751.0
332994.0,472487.0,221419.0,324824.0
333017.0,472442.0,221449.0,324880.0
332979.0,472450.0,221536.0,324952.0
333011.0,472443.0,221614.0,325049.0
333028.0,472469.0,221643.0,325062.0
333037.0,472427.0,221609.0,325037.0
333012.0,472465.0,221600.0,324975.0
332967.0,472344.0,221517.0,324912.0
332960.0,472181.0,221439.0,324800.0
332855.0,472091.0,221329.0,324649.0
332767.0,471905.0,221228.0,324565.0
332701.0,471782.0,221157.0,324479.0
332607.0,471624.0,221110.0,324321.0
332545.0,471472.0,221050.0,324289.0
332383.0,471340.0,220963.0,324136.0
332366.0,471245.0,220923.0,324099.0
332285.0,471146.0,220939.0,324098.0
332299.0,471087.0,221003.0,324181.0
332316.0,471118.0,221010.0,324224.0
332315.0,471108.0,221080.0,324259.0
332336.0,471125.0,221009.0,324228.0
332315.0,471152.0,221014.0,324229.0
332321.0,471107.0,221084.0,324279.0
332349.0,471174.0,221121.0,324335.0
332318.0,471159.0,221114.0,324383.0
332383.0,471264.0,221170.0,324355.0
332416.0,471279.0,221214.0,324453.0
332424.0,471338.0,221268.0,324570.0
332530.0,471428.0,221339.0,324686.0
332599.0,471599.0,221385.0,324711.0
332701.0,471710.0,221500.0,324827.0
332785.0,471870.0,221595.0,324965.0
332911.0,472088.0,221702.0,325109.0
333030.0,472273.0,221817.0,325263.0
333192.0,472514.0,221872.0,325348.0
333315.0,472700.0,221916.0,325407.0
333372.0,472916.0,222000.0,325541.0
333564.0,473167.0,222109.0,325606.0
333759.0,473451.0,222234.0,325804.0
333960.0,473810.0,222405.0,325994.0
334208.0,474194.0,222602.0,326269.0
334522.0,474665.0,222780.0,326483.0
334723.0,475103.0,222995.0,326726.0
335006.0,475594.0,223226.0,326998.0
335241.0,476022.0,223493.0,327256.0
335490.0,476396.0,223747.0,327482.0
335636.0,476599.0,223889.0,327621.0
335724.0,476795.0,223967.0,327745.0
335742.0,476768.0,223957.0,327698.0
335745.0,476732.0,223899.0,327597.0
335759.0,476688.0,223906.0,327569.0
335702.0,476626.0,223885.0,327573.0
335595.0,476413.0,223788.0,327363.0
335541.0,476268.0,223600.0,327212.0
335396.0,476073.0,223394.0,326965.0
335252.0,475826.0,223268.0,326838.0
335084.0,475531.0,223221.0,326764.0
334907.0,475294.0,223143.0,326679.0
334726.0,475155.0,223025.0,326536.0
334623.0,474857.0,222946.0,326431.0
334529.0,474707.0,222994.0,326429.0
334411.0,474648.0,223080.0,326540.0
334403.0,474612.0,223237.0,326665.0
334421.0,474595.0,223276.0,326805.0
334368.0,474643.0,223420.0,326887.0
334350.0,474639.0,223429.0,326979.0
334314.0,474651.0,223402.0,326933.0
334227.0,474530.0,223327.0,326911.0
334210.0,474513.0,223290.0,326861.0
334102.0,474454.0,223288.0,326879.0
334146.0,474440.0,223318.0,326978.0
334171.0,474582.0,223407.0,327011.0
334124.0,474577.0,223495.0,327177.0
334118.0,474649.0,223565.0,327272.0
334203.0,474788.0,223632.0,327335.0
334168.0,474782.0,223632.0,327313.0
334107.0,474761.0,223607.0,327349.0
334140.0,474771.0,223631.0,327395.0
334082.0,474724.0,223627.0,327359.0
334065.0,474685.0,223664.0,327362.0
333966.0,474615.0,223614.0,327394.0
333939.0,474645.0,223643.0,327365.0
333957.0,474707.0,223702.0,327376.0
333916.0,474678.0,223733.0,327486.0
333965.0,474762.0,223725.0,327473.0
333943.0,474753.0,223741.0,327473.0
333909.0,474836.0,223744.0,327487.0
333939.0,474870.0,223726.0,327554.0
333928.0,474912.0,223711.0,327531.0
333910.0,474907.0,223687.0,327592.0
333881.0,475024.0,223745.0,327574.0
333958.0,474994.0,223755.0,327585.0
333930.0,475037.0,223738.0,327572.0
333943.0,475064.0,223768.0,327531.0
333922.0,475105.0,223745.0,327550.0
333991.0,475073.0,223728.0,327520.0
333944.0,475097.0,223717.0,327513.0
333982.0,475144.0,223713.0,327551.0
334018.0,475261.0,223768.0,327637.0
334052.0,475338.0,223862.0,327677.0
334064.0,475371.0,223854.0,327774.0
334147.0,475527.0,223937.0,327798.0
334167.0,475600.0,223939.0,327834.0
334203.0,475648.0,223901.0,327818.0
334171.0,475685.0,223778.0,327704.0
334191.0,475684.0,223734.0,327691.0
334207.0,475654.0,223753.0,327698.0
334187.0,475753.0,223782.0,327701.0
334227.0,475747.0,223810.0,327732.0
334170.0,475765.0,223863.0,327819.0
334189.0,475824.0,223908.0,327839.0
334254.0,475886.0,223961.0,327895.0
334262.0,475968.0,223969.0,327938.0
334346.0,476058.0,223989.0,327898.0
334327.0,476025.0,223957.0,327886.0
334392.0,476108.0,223906.0,327860.0
334422.0,476140.0,223912.0,327846.0
334408.0,476196.0,223939.0,327879.0
334445.0,476232.0,223935.0,327853.0
334428.0,476214.0,223913.0,327902.0
334414.0,476272.0,223893.0,327841.0
334467.0,476336.0,223844.0,327834.0
334437.0,476260.0,223842.0,327772.0
334456.0,476265.0,223768.0,327702.0
334437.0,476279.0,223775.0,327729.0
334454.0,476333.0,223770.0,327710.0
334460.0,476306.0,223802.0,327734.0
334482.0,476398.0,223822.0,327790.0
334487.0,476466.0,223813.0,327811.0
334528.0,476519.0,223810.0,327731.0
334576.0,476535.0,223857.0,327771.0
334605.0,476662.0,223857.0,327787.0
334674.0,476711.0,223886.0,327820.0
334695.0,476883.0,223907.0,327860.0
334723.0,476971.0,223929.0,327828.0
334822.0,477067.0,223884.0,327828.0
334882.0,477196.0,223905.0,327846.0
334920.0,477308.0,223924.0,327895.0
335010.0,477399.0,223946.0,327831.0
334994.0,477445.0,223911.0,327807.0
334932.0,477312.0,223907.0,327743.0
334832.0,477160.0,223849.0,327742.0
334631.0,476861.0,223842.0,327614.0
334425.0,476553.0,223850.0,327639.0
334184.0,476120.0,223851.0,327575.0
333900.0,475624.0,223842.0,327588.0
333568.0,475138.0,223811.0,327532.0
333280.0,474676.0,223812.0,327482.0
332990.0,474278.0,223790.0,327430.0
332759.0,473877.0,223793.0,327444.0
332482.0,473492.0,223787.0,327418.0
332207.0,473140.0,223700.0,327339.0
332009.0,472808.0,223719.0,327305.0
331794.0,472479.0,223732.0,327339.0
331638.0,472263.0,223803.0,327321.0
331434.0,471953.0,223797.0,327327.0
331230.0,471685.0,223764.0,327283.0
331121.0,471497.0,223744.0,327226.0
330945.0,471273.0,223706.0,327206.0
330778.0,471097.0,223684.0,327171.0
330652.0,470916.0,223712.0,327166.0
330535.0,470733.0,223712.0,327133.0
330415.0,470614.0,223693.0,327108.0
330344.0,470545.0,223703.0,327110.0
330235.0,470467.0,223678.0,327127.0
330183.0,470381.0,223692.0,327102.0
330145.0,470385.0,223695.0,327163.0
330129.0,470323.0,223718.0,327139.0
330041.0,470283.0,223650.0,327141.0
330003.0,470276.0,223683.0,327167.0
329973.0,470237.0,223722.0,327210.0
329940.0,470197.0,223760.0,327293.0
329880.0,470169.0,223815.0,327246.0
329863.0,470141.0,223871.0,327302.0
329815.0,470117.0,223845.0,327292.0
329727.0,469992.0,223850.0,327278.0
329614.0,469876.0,223788.0,327187.0
329539.0,469760.0,223753.0,327147.0
329490.0,469636.0,223697.0,327128.0
329360.0,469658.0,223717.0,327131.0
329370.0,469558.0,223705.0,327173.0
329253.0,469465.0,223690.0,327124.0
