321408.0,444827.0,217794.0,315255.0
321299.0,444687.0,217738.0,315119.0
321218.0,444516.0,217665.0,314964.0
321138.0,444339.0,217538.0,314914.0
321115.0,444271.0,217500.0,314831.0
321014.0,444127.0,217415.0,314714.0
321008.0,444035.0,217402.0,314693.0
320924.0,443935.0,217388.0,314613.0
320882.0,443841.0,217329.0,314428.0
320833.0,443742.0,217277.0,314308.0
320755.0,443640.0,217255.0,314184.0
320716.0,443586.0,217294.0,314221.0
320720.0,443478.0,217351.0,314235.0
320650.0,443439.0,217354.0,314216.0
320638.0,443360.0,217369.0,314267.0
320565.0,443353.0,217375.0,314254.0
320562.0,443192.0,217323.0,314273.0
320477.0,443093.0,217315.0,314244.0
320463.0,443050.0,217197.0,314170.0
320336.0,442905.0,217130.0,313971.0
320290.0,442780.0,217039.0,313780.0
320246.0,442634.0,216888.0,313566.0
320164.0,442528.0,216824.0,313342.0
320092.0,442440.0,216692.0,313228.0
320014.0,442348.0,216606.0,313042.0
319955.0,442266.0,216459.0,312889.0
319970.0,442125.0,216323.0,312672.0
319848.0,442009.0,216198.0,312571.0
319793.0,441886.0,216093.0,312415.0
319627.0,441619.0,215933.0,312300.0
319445.0,441284.0,215784.0,312166.0
319146.0,440902.0,215633.0,311992.0
318863.0,440358.0,215552.0,311850.0
318526.0,439780.0,215475.0,311695.0
318141.0,439230.0,215387.0,311516.0
317813.0,438611.0,215252.0,311248.0
317473.0,438370.0,215184.0,311094.0
317141.0,437899.0,215108.0,310921.0
316854.0,437377.0,214992.0,310766.0
316573.0,436943.0,214844.0,310649.0
316297.0,436513.0,214699.0,310462.0
316054.0,436196.0,214548.0,310343.0
315884.0,435867.0,214425.0,310152.0
315716.0,435583.0,214286.0,310040.0
315517.0,435244.0,214170.0,309860.0
315323.0,434926.0,214092.0,309718.0
315195.0,434719.0,214072.0,309638.0
315086.0,434420.0,214066.0,309499.0
314897.0,434170.0,214060.0,309440.0
314756.0,433943.0,214028.0,309357.0
314606.0,433735.0,213913.0,309262.0
314521.0,433581.0,213880.0,309167.0
314435.0,433351.0,213782.0,309051.0
314235.0,433140.0,213741.0,308979.0
314188.0,432900.0,213717.0,308919.0
314067.0,432704.0,213635.0,308846.0
313916.0,432469.0,213553.0,308780.0
313776.0,432235.0,213530.0,308731.0
313648.0,432021.0,213514.0,308654.0
313448.0,431737.0,213476.0,308561.0
313325.0,431480.0,213496.0,308454.0
313152.0,431209.0,213420.0,308354.0
313019.0,430968.0,213443.0,308286.0
312844.0,430688.0,213407.0,308227.0
312693.0,430447.0,213399.0,308147.0
312536.0,430188.0,213308.0,308078.0
312399.0,429933.0,213265.0,307984.0
312274.0,429723.0,213203.0,307949.0
312147.0,429517.0,213168.0,307873.0
312073.0,429285.0,213126.0,307818.0
311952.0,429124.0,213099.0,307759.0
311860.0,429027.0,213067.0,307763.0
311777.0,428870.0,213076.0,307656.0
311679.0,428696.0,213021.0,307551.0
311634.0,428558.0,213003.0,307513.0
311526.0,428440.0,213015.0,307433.0
311472.0,428323.0,212983.0,307455.0
311393.0,428215.0,212941.0,307362.0
311323.0,428108.0,212971.0,307356.0
311319.0,428127.0,212994.0,307330.0
311328.0,427984.0,213033.0,307377.0
311211.0,427882.0,213041.0,307369.0
311189.0,427892.0,213026.0,307335.0
311187.0,427811.0,213025.0,307301.0
311130.0,427766.0,212982.0,307290.0
311132.0,427673.0,212960.0,307289.0
311097.0,427665.0,212970.0,307240.0
311051.0,427609.0,212966.0,307181.0
311076.0,427531.0,212979.0,307180.0
311008.0,427495.0,212940.0,307202.0
311003.0,427449.0,212940.0,307196.0
310981.0,427390.0,212928.0,307192.0
310952.0,427385.0,212937.0,307177.0
310924.0,427354.0,212882.0,307182.0
310921.0,427321.0,212858.0,307133.0
310922.0,427261.0,212871.0,307150.0
310853.0,427132.0,212847.0,307081.0
310840.0,427134.0,212816.0,307120.0
310813.0,427108.0,212862.0,307150.0
310762.0,427082.0,212892.0,307146.0
310803.0,427069.0,212870.0,307103.0
310750.0,427020.0,212866.0,307104.0
310703.0,426964.0,212866.0,307082.0
310711.0,426942.0,212867.0,307059.0
310725.0,426916.0,212843.0,307016.0
310740.0,426889.0,212846.0,307026.0
310739.0,426888.0,212844.0,307046.0
310725.0,426935.0,212848.0,307050.0
310766.0,426885.0,212818.0,307007.0
310757.0,426872.0,212780.0,306996.0
310772.0,426911.0,212801.0,307012.0
310769.0,426926.0,212771.0,306971.0
310802.0,426887.0,212745.0,306895.0
310801.0,426908.0,212729.0,306919.0
310785.0,426918.0,212714.0,306911.0
310782.0,426909.0,212714.0,306901.0
310794.0,426921.0,212653.0,306918.0
310839.0,426941.0,212661.0,306888.0
310814.0,426949.0,212607.0,306857.0
310821.0,426968.0,212603.0,306787.0
310844.0,427001.0,212587.0,306836.0
310882.0,427023.0,212619.0,306840.0
310928.0,427037.0,212613.0,306873.0
310895.0,427039.0,212589.0,306865.0
310898.0,427005.0,212597.0,306907.0
310826.0,426858.0,212621.0,306920.0
310744.0,426616.0,212574.0,306836.0
310558.0,426394.0,212551.0,306850.0
310341.0,426044.0,212528.0,306766.0
310096.0,425592.0,212509.0,306725.0
309890.0,425187.0,212479.0,306711.0
309594.0,424776.0,212463.0,306660.0
309361.0,424399.0,212403.0,306558.0
309134.0,424059.0,212390.0,306531.0
308947.0,423737.0,212315.0,306433.0
308752.0,423449.0,212307.0,306389.0
308615.0,423194.0,212280.0,306329.0
308519.0,422965.0,212210.0,306237.0
308388.0,422835.0,212157.0,306168.0
308332.0,422650.0,212124.0,306170.0
308245.0,422543.0,212082.0,306115.0
308192.0,422409.0,212044.0,306086.0
308145.0,422328.0,212026.0,306078.0
308115.0,422202.0,212015.0,306033.0
308078.0,422127.0,211942.0,305989.0
307988.0,422059.0,211918.0,305952.0
307960.0,421972.0,211855.0,305927.0
307927.0,421998.0,211791.0,305877.0
307924.0,422016.0,211784.0,305853.0
307896.0,421915.0,211744.0,305764.0
307840.0,421882.0,211768.0,305780.0
307828.0,421823.0,211785.0,305778.0
307806.0,421813.0,211793.0,305735.0
307792.0,421723.0,211841.0,305752.0
307754.0,421634.0,211830.0,305711.0
307737.0,421591.0,211811.0,305731.0
307707.0,421515.0,211856.0,305717.0
307662.0,421489.0,211833.0,305676.0
307612.0,421350.0,211823.0,305656.0
307558.0,421300.0,211827.0,305638.0
307510.0,421265.0,211807.0,305575.0
307528.0,421178.0,211806.0,305556.0
307481.0,421092.0,211819.0,305540.0
307422.0,421052.0,211850.0,305517.0
307462.0,420984.0,211819.0,305532.0
307411.0,420991.0,211814.0,305529.0
307431.0,420992.0,211836.0,305528.0
307390.0,421026.0,211806.0,305546.0
307439.0,421032.0,211819.0,305461.0
307504.0,421013.0,211794.0,305534.0
307526.0,421035.0,211803.0,305470.0
307516.0,421144.0,211798.0,305508.0
307543.0,421071.0,211772.0,305500.0
307570.0,421187.0,211768.0,305447.0
307567.0,421185.0,211752.0,305472.0
307636.0,421211.0,211746.0,305488.0
307680.0,421276.0,211732.0,305449.0
307681.0,421304.0,211771.0,305485.0
307707.0,421343.0,211782.0,305518.0
307754.0,421443.0,211777.0,305508.0
307816.0,421507.0,211797.0,305488.0
307844.0,421556.0,211752.0,305503.0
307905.0,421578.0,211750.0,305496.0
307923.0,421631.0,211743.0,305482.0
307936.0,421655.0,211697.0,305474.0
307953.0,421674.0,211681.0,305491.0
307957.0,421757.0,211669.0,305440.0
308054.0,421831.0,211669.0,305438.0
308078.0,421798.0,211636.0,305406.0
308073.0,421846.0,211657.0,305397.0
308131.0,421935.0,211646.0,305425.0
308191.0,421914.0,211635.0,305429.0
308186.0,422007.0,211676.0,305388.0
308268.0,422058.0,211686.0,305485.0
308279.0,422148.0,211681.0,305428.0
308326.0,422108.0,211710.0,305441.0
308344.0,422166.0,211688.0,305427.0
308405.0,422266.0,211705.0,305494.0
308426.0,422323.0,211720.0,305476.0
308441.0,422335.0,211712.0,305450.0
308492.0,422457.0,211745.0,305516.0
308576.0,422486.0,211759.0,305488.0
308595.0,422600.0,211736.0,305519.0
308643.0,422647.0,211751.0,305524.0
308699.0,422689.0,211705.0,305459.0
308769.0,422753.0,211712.0,305477.0
308786.0,422856.0,211692.0,305523.0
308832.0,422929.0,211716.0,305471.0
308901.0,423019.0,211702.0,305519.0
308919.0,423038.0,211776.0,305539.0
308996.0,423121.0,211796.0,305564.0
309002.0,423215.0,211811.0,305564.0
309095.0,423294.0,211847.0,305568.0
309157.0,423395.0,211876.0,305596.0
309199.0,423489.0,211854.0,305592.0
309214.0,423488.0,211896.0,305603.0
309279.0,423631.0,211910.0,305587.0
309356.0,423648.0,211914.0,305597.0
309363.0,423693.0,211911.0,305626.0
309461.0,423796.0,211903.0,305598.0
309505.0,423894.0,211920.0,305629.0
309506.0,423922.0,211942.0,305657.0
309585.0,424033.0,211936.0,305655.0
309579.0,424003.0,211931.0,305619.0
309580.0,424047.0,211943.0,305622.0
309510.0,423909.0,211959.0,305675.0
309400.0,423699.0,211984.0,305637.0
309222.0,423480.0,212012.0,305611.0
309017.0,423095.0,211978.0,305575.0
308818.0,422742.0,211983.0,305526.0
308553.0,422346.0,211974.0,305506.0
308334.0,422020.0,211947.0,305446.0
308116.0,421650.0,211902.0,305387.0
307911.0,421387.0,211872.0,305347.0
307732.0,421065.0,211846.0,305308.0
307596.0,420870.0,211833.0,305244.0
307483.0,420777.0,211831.0,305244.0
307385.0,420586.0,211833.0,305191.0
307303.0,420461.0,211857.0,305216.0
307295.0,420405.0,211855.0,305191.0
307297.0,420286.0,211845.0,305143.0
307235.0,420227.0,211843.0,305166.0
307193.0,420183.0,211850.0,305166.0
307160.0,420178.0,211841.0,305131.0
307124.0,420087.0,211833.0,305138.0
307129.0,420089.0,211834.0,305097.0
307111.0,420045.0,211881.0,305101.0
307091.0,420040.0,211884.0,305114.0
307121.0,420048.0,211884.0,305113.0
307120.0,420104.0,211908.0,305116.0
307106.0,420026.0,211917.0,305087.0
307096.0,420044.0,211892.0,305089.0
307055.0,420021.0,211976.0,305080.0
307087.0,420045.0,211984.0,305104.0
307030.0,419989.0,211992.0,305100.0
307003.0,419957.0,211969.0,305073.0
306984.0,419900.0,211972.0,305087.0
306937.0,419918.0,211979.0,305079.0
306888.0,419835.0,211997.0,305059.0
306882.0,419769.0,211969.0,305047.0
306850.0,419771.0,211963.0,305019.0
306833.0,419740.0,211952.0,305060.0
306800.0,419669.0,211943.0,305040.0
306819.0,419642.0,211925.0,305031.0
306768.0,419625.0,211893.0,305021.0
306797.0,419610.0,211906.0,304986.0
306820.0,419683.0,211899.0,305000.0
306809.0,419700.0,211923.0,305016.0
306791.0,419741.0,211927.0,305063.0
306807.0,419805.0,211943.0,305002.0
306838.0,419821.0,211929.0,305019.0
306881.0,419884.0,211936.0,305015.0
306933.0,419924.0,211930.0,305036.0
306937.0,419911.0,211923.0,305018.0
307032.0,420051.0,211944.0,305049.0
307057.0,420066.0,211976.0,305107.0
307078.0,420134.0,211939.0,305065.0
307141.0,420219.0,211973.0,305071.0
307186.0,420331.0,211986.0,305115.0
307240.0,420349.0,212015.0,305118.0
307268.0,420443.0,211984.0,305108.0
307301.0,420556.0,212014.0,305153.0
307320.0,420563.0,212028.0,305165.0
307398.0,420649.0,212044.0,305102.0
307400.0,420701.0,212040.0,305144.0
307456.0,420738.0,212017.0,305136.0
307486.0,420851.0,212023.0,305187.0
307507.0,420859.0,212037.0,305194.0
307597.0,420941.0,212009.0,305238.0
307586.0,421052.0,211975.0,305228.0
307615.0,421123.0,211972.0,305217.0
307676.0,421156.0,211950.0,305209.0
307696.0,421197.0,211982.0,305219.0
307732.0,421281.0,211989.0,305255.0
307761.0,421342.0,212000.0,305248.0
307801.0,421399.0,212029.0,305265.0
307836.0,421447.0,212012.0,305286.0
307898.0,421538.0,212043.0,305294.0
307908.0,421651.0,212035.0,305304.0
307951.0,421684.0,212071.0,305317.0
308010.0,421747.0,212083.0,305328.0
308037.0,421840.0,212114.0,305319.0
308062.0,421853.0,212134.0,305292.0
308080.0,421974.0,212066.0,305334.0
308152.0,422011.0,212058.0,305327.0
308172.0,422014.0,212066.0,305350.0
308227.0,422161.0,212104.0,305300.0
308249.0,422180.0,212087.0,305349.0
308310.0,422249.0,212081.0,305325.0
308342.0,422330.0,212081.0,305361.0
308378.0,422416.0,212085.0,305353.0
308428.0,422500.0,212081.0,305409.0
308488.0,422569.0,212095.0,305371.0
308516.0,422660.0,212120.0,305437.0
308611.0,422761.0,212118.0,305393.0
308635.0,422845.0,212100.0,305410.0
308704.0,422932.0,212104.0,305395.0
308727.0,423031.0,212115.0,305413.0
308816.0,423082.0,212125.0,305391.0
308865.0,423184.0,212108.0,305464.0
308921.0,423313.0,212140.0,305453.0
308920.0,423355.0,212148.0,305502.0
308972.0,423345.0,212153.0,305483.0
308921.0,423312.0,212133.0,305500.0
308868.0,423210.0,212118.0,305476.0
308724.0,422967.0,212154.0,305469.0
308539.0,422718.0,212143.0,305454.0
308332.0,422407.0,212194.0,305437.0
308032.0,422062.0,212159.0,305438.0
307856.0,421767.0,212140.0,305356.0
307632.0,421477.0,212103.0,305344.0
307432.0,421128.0,212101.0,305248.0
307301.0,420907.0,212047.0,305195.0
307126.0,420718.0,212066.0,305224.0
307009.0,420530.0,212058.0,305184.0
306900.0,420413.0,212044.0,305140.0
306839.0,420287.0,211997.0,305106.0
306781.0,420252.0,211990.0,305101.0
306746.0,420207.0,211941.0,305106.0
306745.0,420196.0,211919.0,305075.0
306724.0,420159.0,211882.0,305058.0
306693.0,420167.0,211827.0,305034.0
306700.0,420206.0,211839.0,305011.0
306696.0,420150.0,211832.0,304995.0
306730.0,420169.0,211783.0,305006.0
306722.0,420187.0,211797.0,304998.0
306744.0,420240.0,211798.0,305045.0
306795.0,420287.0,211824.0,305049.0
306767.0,420319.0,211861.0,305088.0
306757.0,420304.0,211852.0,305040.0
306779.0,420304.0,211866.0,305053.0
306699.0,420262.0,211859.0,305048.0
306718.0,420270.0,211844.0,305053.0
306697.0,420267.0,211804.0,305011.0
306646.0,420209.0,211830.0,304991.0
306650.0,420199.0,211826.0,304982.0
306596.0,420101.0,211778.0,304953.0
306541.0,420132.0,211780.0,304937.0
306494.0,420070.0,211728.0,304921.0
306468.0,420043.0,211682.0,304855.0
306387.0,419984.0,211665.0,304865.0
306401.0,419992.0,211654.0,304815.0
306397.0,419994.0,211636.0,304801.0
306383.0,419927.0,211608.0,304816.0
306332.0,419977.0,211591.0,304758.0
306410.0,420043.0,211601.0,304813.0
306371.0,420041.0,211613.0,304796.0
306425.0,420069.0,211623.0,304785.0
306451.0,420159.0,211617.0,304804.0
306508.0,420189.0,211623.0,304813.0
306467.0,420229.0,211616.0,304752.0
306530.0,420324.0,211605.0,304765.0
306590.0,420406.0,211591.0,304792.0
306631.0,420466.0,211589.0,304816.0
306706.0,420497.0,211556.0,304807.0
306736.0,420575.0,211549.0,304833.0
306717.0,420650.0,211511.0,304826.0
306806.0,420721.0,211541.0,304803.0
306807.0,420783.0,211525.0,304805.0
306890.0,420884.0,211581.0,304861.0
306924.0,420893.0,211596.0,304848.0
306983.0,420997.0,211590.0,304858.0
306984.0,421032.0,211624.0,304880.0
307014.0,421125.0,211621.0,304883.0
307116.0,421192.0,211596.0,304864.0
307106.0,421233.0,211588.0,304876.0
307127.0,421288.0,211588.0,304917.0
307126.0,421354.0,211612.0,304899.0
307247.0,421426.0,211598.0,304870.0
307233.0,421523.0,211548.0,304896.0
307267.0,421553.0,211530.0,304907.0
307276.0,421607.0,211529.0,304861.0
307339.0,421680.0,211504.0,304900.0
307365.0,421742.0,211546.0,304883.0
307414.0,421781.0,211583.0,304907.0
307424.0,421792.0,211580.0,304908.0
307458.0,421848.0,211548.0,304903.0
307475.0,421935.0,211546.0,304870.0
307494.0,422011.0,211578.0,304871.0
307522.0,422037.0,211549.0,304878.0
307569.0,422082.0,211513.0,304929.0
307581.0,422174.0,211538.0,304919.0
307659.0,422253.0,211522.0,304897.0
307694.0,422312.0,211545.0,304909.0
307778.0,422397.0,211513.0,304895.0
307740.0,422459.0,211503.0,304913.0
307790.0,422505.0,211482.0,304911.0
307844.0,422600.0,211507.0,304915.0
307900.0,422649.0,211465.0,304851.0
307953.0,422769.0,211435.0,304883.0
307958.0,422835.0,211446.0,304881.0
308045.0,422956.0,211463.0,304954.0
308120.0,423012.0,211444.0,304966.0
308135.0,423099.0,211423.0,304948.0
308196.0,423220.0,211444.0,304963.0
308260.0,423260.0,211432.0,304955.0
308335.0,423355.0,211446.0,304950.0
308360.0,423369.0,211427.0,304983.0
308361.0,423334.0,211422.0,304988.0
308263.0,423297.0,211409.0,304968.0
308161.0,423164.0,211402.0,304949.0
307995.0,422977.0,211328.0,304916.0
307858.0,422715.0,211346.0,304890.0
307597.0,422368.0,211325.0,304826.0
307412.0,422111.0,211294.0,304797.0
307231.0,421832.0,211268.0,304782.0
307077.0,421583.0,211246.0,304711.0
306918.0,421408.0,211249.0,304731.0
306777.0,421271.0,211238.0,304663.0
306730.0,421096.0,211193.0,304605.0
306625.0,421026.0,211186.0,304588.0
306553.0,420922.0,211180.0,304531.0
306514.0,420873.0,211158.0,304507.0
306470.0,420875.0,211105.0,304485.0
306475.0,420826.0,211082.0,304478.0
306493.0,420830.0,211096.0,304468.0
306514.0,420830.0,211064.0,304397.0
306560.0,420902.0,210993.0,304463.0
306537.0,420983.0,210997.0,304357.0
306567.0,420966.0,210956.0,304423.0
306605.0,421017.0,210944.0,304366.0
306620.0,421090.0,210924.0,304366.0
306671.0,421103.0,210934.0,304369.0
306673.0,421203.0,210906.0,304337.0
306701.0,421168.0,210934.0,304349.0
306680.0,421171.0,210926.0,304347.0
306725.0,421238.0,210923.0,304366.0
306678.0,421213.0,210917.0,304316.0
306672.0,421198.0,210907.0,304317.0
306675.0,421186.0,210891.0,304297.0
306659.0,421164.0,210886.0,304282.0
306615.0,421126.0,210861.0,304277.0
306603.0,421109.0,210865.0,304245.0
306622.0,421099.0,210884.0,304255.0
306573.0,421090.0,210878.0,304197.0
306610.0,421022.0,210865.0,304198.0
306574.0,421031.0,210882.0,304197.0
306596.0,421096.0,210895.0,304147.0
306587.0,421101.0,210867.0,304159.0
306623.0,421186.0,210884.0,304189.0
306678.0,421189.0,210865.0,304178.0
306657.0,421228.0,210853.0,304167.0
306715.0,421276.0,210839.0,304145.0
306717.0,421395.0,210869.0,304190.0
306759.0,421421.0,210836.0,304167.0
306834.0,421463.0,210848.0,304146.0
306888.0,421564.0,210890.0,304129.0
306909.0,421604.0,210921.0,304123.0
306951.0,421681.0,210941.0,304167.0
307027.0,421779.0,210921.0,304113.0
307065.0,421875.0,210976.0,304153.0
307117.0,421949.0,210956.0,304162.0
307154.0,422012.0,210944.0,304151.0
307195.0,422039.0,210893.0,304132.0
307247.0,422139.0,210904.0,304102.0
307317.0,422242.0,210896.0,304131.0
307351.0,422319.0,210875.0,304123.0
307453.0,422369.0,210828.0,304117.0
307450.0,422487.0,210821.0,304116.0
307544.0,422533.0,210818.0,304112.0
307559.0,422615.0,210765.0,304142.0
307573.0,422631.0,210790.0,304120.0
307628.0,422749.0,210813.0,304097.0
307639.0,422789.0,210779.0,304128.0
307722.0,422838.0,210804.0,304124.0
307780.0,422909.0,210830.0,304146.0
307762.0,423026.0,210830.0,304182.0
307825.0,423053.0,210858.0,304154.0
307903.0,423081.0,210879.0,304162.0
307896.0,423195.0,210944.0,304195.0
307935.0,423234.0,210915.0,304205.0
307966.0,423317.0,210932.0,304183.0
307979.0,423329.0,210951.0,304174.0
308043.0,423382.0,210943.0,304192.0
308076.0,423447.0,210946.0,304194.0
308103.0,423597.0,210930.0,304210.0
308208.0,423581.0,210941.0,304156.0
308246.0,423715.0,210939.0,304170.0
308270.0,423812.0,210903.0,304176.0
308298.0,423861.0,210881.0,304231.0
308356.0,423861.0,210851.0,304190.0
308435.0,423991.0,210902.0,304204.0
308449.0,424028.0,210886.0,304179.0
308489.0,424135.0,210886.0,304232.0
