290856.0,404829.0,200760.0,294663.0
291168.0,405274.0,201319.0,295397.0
291414.0,405661.0,201834.0,296067.0
291635.0,406004.0,202318.0,296777.0
291846.0,406338.0,202860.0,297454.0
292005.0,406678.0,203483.0,298259.0
292185.0,406928.0,204318.0,299329.0
292378.0,407243.0,205272.0,300548.0
292554.0,407462.0,206344.0,301841.0
292706.0,407700.0,207460.0,303301.0
292866.0,407921.0,208489.0,304523.0
293117.0,408199.0,209565.0,305761.0
293396.0,408596.0,210838.0,307293.0
293817.0,409205.0,212167.0,308989.0
294284.0,409990.0,213326.0,310452.0
294836.0,410831.0,214508.0,311892.0
295525.0,411872.0,215661.0,313349.0
296391.0,413201.0,216977.0,314977.0
297407.0,414735.0,218283.0,316649.0
298469.0,416476.0,219404.0,318048.0
299621.0,418329.0,220411.0,319366.0
300895.0,420309.0,221371.0,320641.0
302119.0,422273.0,222252.0,321815.0
303351.0,424341.0,223127.0,322972.0
304792.0,426690.0,224225.0,324454.0
306441.0,429329.0,225243.0,325816.0
308208.0,432005.0,226186.0,327077.0
310001.0,434877.0,227023.0,328080.0
311685.0,437460.0,227900.0,329125.0
313295.0,440010.0,228819.0,330127.0
315013.0,442633.0,229772.0,331224.0
316837.0,445419.0,230559.0,332152.0
318748.0,448387.0,231306.0,332967.0
320606.0,451216.0,231876.0,333639.0
322475.0,454010.0,232381.0,334237.0
324371.0,456693.0,232843.0,334779.0
326253.0,459577.0,233316.0,335312.0
328053.0,462412.0,233704.0,335743.0
329824.0,465194.0,234055.0,336218.0
331495.0,467724.0,234362.0,336535.0
333000.0,470201.0,234658.0,336859.0
334536.0,472385.0,234909.0,337177.0
335990.0,474703.0,235179.0,337533.0
337438.0,476887.0,235418.0,337851.0
338828.0,479072.0,235627.0,338038.0
340077.0,481029.0,235810.0,338301.0
341325.0,483050.0,235982.0,338618.0
342461.0,484774.0,236166.0,338835.0
343521.0,486411.0,236302.0,339056.0
344549.0,487791.0,236479.0,339223.0
345534.0,489244.0,236595.0,339425.0
346449.0,490673.0,236754.0,339655.0
347334.0,492089.0,236894.0,339841.0
348258.0,493421.0,237086.0,339964.0
349047.0,494703.0,237152.0,340158.0
349866.0,495904.0,237220.0,340329.0
350637.0,497046.0,237327.0,340439.0
351330.0,498062.0,237431.0,340576.0
351921.0,499030.0,237531.0,340747.0
352471.0,499850.0,237628.0,340836.0
353006.0,500666.0,237750.0,341022.0
353456.0,501389.0,237865.0,341201.0
353964.0,502114.0,237939.0,341288.0
354388.0,502762.0,238020.0,341454.0
354845.0,503447.0,238101.0,341541.0
355300.0,504113.0,238164.0,341623.0
355662.0,504749.0,238222.0,341716.0
356123.0,505422.0,238265.0,341797.0
356548.0,505985.0,238342.0,341888.0
356959.0,506618.0,238416.0,341968.0
357312.0,507191.0,238534.0,342088.0
357708.0,507756.0,238583.0,342200.0
358020.0,508314.0,238617.0,342269.0
358368.0,508798.0,238665.0,342375.0
358706.0,509342.0,238680.0,342427.0
359070.0,509916.0,238730.0,342501.0
359442.0,510444.0,238789.0,342559.0
359793.0,511014.0,238834.0,342675.0
360213.0,511693.0,238900.0,342775.0
360540.0,512247.0,238884.0,342776.0
360878.0,512732.0,238885.0,342862.0
361146.0,513206.0,238981.0,342923.0
361491.0,513681.0,239014.0,343017.0
361802.0,514232.0,239068.0,343048.0
362174.0,514773.0,239101.0,343150.0
362559.0,515262.0,239146.0,343229.0
362884.0,515869.0,239222.0,343259.0
363203.0,516483.0,239234.0,343310.0
363563.0,517031.0,239283.0,343398.0
363809.0,517457.0,239315.0,343438.0
364079.0,517847.0,239316.0,343489.0
364327.0,518179.0,239343.0,343505.0
364555.0,518555.0,239428.0,343653.0
364779.0,518914.0,239427.0,343646.0
365096.0,519284.0,239479.0,343733.0
365233.0,519622.0,239545.0,343730.0
365459.0,520068.0,239543.0,343828.0
365709.0,520328.0,239558.0,343828.0
365930.0,520593.0,239578.0,343902.0
366105.0,520927.0,239602.0,343860.0
366287.0,521160.0,239659.0,343943.0
366416.0,521350.0,239645.0,343943.0
366546.0,521507.0,239669.0,343982.0
366689.0,521752.0,239694.0,343977.0
366831.0,522009.0,239752.0,343998.0
367074.0,522346.0,239748.0,344013.0
367254.0,522587.0,239746.0,344103.0
367459.0,522974.0,239768.0,344125.0
367669.0,523338.0,239739.0,344115.0
367925.0,523672.0,239767.0,344090.0
368178.0,524088.0,239789.0,344069.0
368454.0,524287.0,239799.0,344135.0
368671.0,524287.0,239820.0,344149.0
368864.0,524287.0,239828.0,344161.0
369033.0,524287.0,239891.0,344153.0
369215.0,524287.0,239875.0,344214.0
369384.0,524287.0,239881.0,344213.0
369531.0,524287.0,239904.0,344236.0
369644.0,524287.0,239929.0,344327.0
369879.0,524287.0,239976.0,344334.0
370009.0,524287.0,240038.0,344424.0
370239.0,524287.0,240053.0,344455.0
370454.0,524287.0,240134.0,344499.0
370658.0,524287.0,240151.0,344553.0
370830.0,524287.0,240150.0,344593.0
371091.0,524287.0,240172.0,344642.0
371254.0,524287.0,240161.0,344677.0
371482.0,524287.0,240209.0,344714.0
371645.0,524287.0,240282.0,344727.0
371822.0,524287.0,240288.0,344775.0
372051.0,524287.0,240300.0,344808.0
372223.0,524287.0,240300.0,344844.0
372421.0,524287.0,240305.0,344857.0
372579.0,524287.0,240348.0,344901.0
372770.0,524287.0,240374.0,344891.0
372891.0,524287.0,240359.0,344928.0
372993.0,524287.0,240355.0,344973.0
373173.0,524287.0,240360.0,344938.0
373332.0,524287.0,240380.0,344968.0
373434.0,524287.0,240379.0,344960.0
373647.0,524287.0,240385.0,344998.0
373735.0,524287.0,240385.0,345035.0
373903.0,524287.0,240400.0,345053.0
374024.0,524287.0,240411.0,345081.0
374140.0,524287.0,240427.0,345107.0
374336.0,524287.0,240441.0,345128.0
374512.0,524287.0,240480.0,345134.0
374628.0,524287.0,240490.0,345143.0
374799.0,524287.0,240518.0,345050.0
374912.0,524287.0,240515.0,345189.0
375044.0,524287.0,240499.0,345261.0
375151.0,524287.0,240539.0,345287.0
375285.0,524287.0,240518.0,345286.0
375494.0,524287.0,240590.0,345310.0
375590.0,524287.0,240583.0,345376.0
375786.0,524287.0,240627.0,345387.0
375988.0,524287.0,240617.0,345402.0
376111.0,524287.0,240646.0,345465.0
376269.0,524287.0,240670.0,345414.0
376452.0,524287.0,240640.0,345511.0
376631.0,524287.0,240668.0,345551.0
376761.0,524287.0,240677.0,345523.0
376965.0,524287.0,240741.0,345565.0
377094.0,524287.0,240714.0,345601.0
377289.0,524287.0,240750.0,345605.0
377454.0,524287.0,240738.0,345540.0
377549.0,524287.0,240721.0,345613.0
377729.0,524287.0,240754.0,345654.0
377804.0,524287.0,240725.0,345627.0
377951.0,524287.0,240740.0,345663.0
378105.0,524287.0,240759.0,345689.0
378193.0,524287.0,240781.0,345726.0
378371.0,524287.0,240795.0,345740.0
378437.0,524287.0,240802.0,345763.0
378606.0,524287.0,240809.0,345763.0
378733.0,524287.0,240826.0,345794.0
378794.0,524287.0,240817.0,345835.0
378974.0,524287.0,240855.0,345861.0
379146.0,524287.0,240835.0,345847.0
379288.0,524287.0,240840.0,345943.0
379392.0,524287.0,240902.0,345935.0
379525.0,524287.0,240946.0,345997.0
379650.0,524287.0,240962.0,346002.0
379827.0,524287.0,241002.0,346064.0
379940.0,524287.0,240984.0,346040.0
380031.0,524287.0,241020.0,346126.0
380144.0,524287.0,240987.0,346085.0
380304.0,524287.0,241002.0,346154.0
380362.0,524287.0,241017.0,346150.0
380499.0,524287.0,240983.0,346132.0
380594.0,524287.0,241017.0,346192.0
380723.0,524287.0,241038.0,346196.0
380889.0,524287.0,241059.0,346231.0
380923.0,524287.0,241078.0,346251.0
381067.0,524287.0,241064.0,346287.0
381176.0,524287.0,241106.0,346313.0
381264.0,524287.0,241121.0,346317.0
381357.0,524287.0,241115.0,346362.0
381475.0,524287.0,241104.0,346336.0
381634.0,524287.0,241167.0,346406.0
381724.0,524287.0,241117.0,346375.0
381846.0,524287.0,241158.0,346464.0
381914.0,524287.0,241195.0,346449.0
382040.0,524287.0,241145.0,346514.0
382138.0,524287.0,241195.0,346505.0
382212.0,524287.0,241193.0,346493.0
382375.0,524287.0,241202.0,346523.0
382423.0,524287.0,241243.0,346522.0
382507.0,524287.0,241247.0,346565.0
382602.0,524287.0,241184.0,346509.0
382689.0,524287.0,241182.0,346433.0
382803.0,524287.0,241161.0,346448.0
382862.0,524287.0,241133.0,346363.0
382911.0,524287.0,241100.0,346365.0
383003.0,524287.0,241120.0,346325.0
383027.0,524287.0,241091.0,346328.0
383089.0,524287.0,241102.0,346346.0
383068.0,524287.0,241078.0,346350.0
383127.0,524287.0,241150.0,346332.0
383193.0,524287.0,241115.0,346307.0
383236.0,524287.0,241132.0,346300.0
383246.0,524287.0,241137.0,346307.0
383240.0,524287.0,241133.0,346365.0
383305.0,524287.0,241135.0,346326.0
383335.0,524287.0,241170.0,346369.0
383398.0,524287.0,241173.0,346409.0
383384.0,524287.0,241175.0,346375.0
383531.0,524287.0,241204.0,346451.0
383568.0,524287.0,241210.0,346470.0
383623.0,524287.0,241237.0,346475.0
383681.0,524287.0,241240.0,346502.0
383786.0,524287.0,241284.0,346541.0
383782.0,524287.0,241254.0,346506.0
383838.0,524287.0,241293.0,346519.0
383985.0,524287.0,241309.0,346541.0
384007.0,524287.0,241286.0,346534.0
384108.0,524287.0,241277.0,346584.0
384204.0,524287.0,241293.0,346594.0
384267.0,524287.0,241292.0,346605.0
384304.0,524287.0,241329.0,346605.0
384427.0,524287.0,241309.0,346583.0
384501.0,524287.0,241295.0,346609.0
384565.0,524287.0,241316.0,346622.0
384638.0,524287.0,241328.0,346654.0
384754.0,524287.0,241337.0,346665.0
384853.0,524287.0,241328.0,346707.0
384923.0,524287.0,241382.0,346730.0
385008.0,524287.0,241383.0,346785.0
385163.0,524287.0,241371.0,346759.0
385318.0,524287.0,241408.0,346873.0
385458.0,524287.0,241410.0,346810.0
385478.0,524287.0,241425.0,346812.0
385565.0,524287.0,241439.0,346837.0
385654.0,524287.0,241436.0,346820.0
385756.0,524287.0,241455.0,346865.0
385802.0,524287.0,241469.0,346872.0
385891.0,524287.0,241482.0,346899.0
385933.0,524287.0,241442.0,346930.0
386046.0,524287.0,241517.0,346921.0
386125.0,524287.0,241478.0,346969.0
386206.0,524287.0,241501.0,346970.0
386300.0,524287.0,241491.0,346953.0
386385.0,524287.0,241522.0,347003.0
386472.0,524287.0,241509.0,346982.0
386616.0,524287.0,241499.0,347002.0
386685.0,524287.0,241505.0,347020.0
386791.0,524287.0,241523.0,347027.0
386903.0,524287.0,241499.0,347012.0
387026.0,524287.0,241548.0,347016.0
387120.0,524287.0,241524.0,347017.0
387240.0,524287.0,241529.0,347038.0
387323.0,524287.0,241517.0,347072.0
387517.0,524287.0,241492.0,347064.0
387604.0,524287.0,241531.0,347068.0
387689.0,524287.0,241556.0,347093.0
387755.0,524287.0,241542.0,347111.0
387899.0,524287.0,241509.0,347103.0
388026.0,524287.0,241415.0,347100.0
388107.0,524287.0,241410.0,347118.0
388270.0,524287.0,241397.0,347137.0
388303.0,524287.0,241409.0,347157.0
388390.0,524287.0,241402.0,347145.0
388496.0,524287.0,241417.0,347146.0
388571.0,524287.0,241402.0,347110.0
388628.0,524287.0,241414.0,347168.0
388702.0,524287.0,241434.0,347180.0
388794.0,524287.0,241416.0,347147.0
388875.0,524287.0,241411.0,347208.0
388966.0,524287.0,241407.0,347191.0
388957.0,524287.0,241450.0,347209.0
389054.0,524287.0,241458.0,347223.0
389144.0,524287.0,241463.0,347229.0
389204.0,524287.0,241400.0,347233.0
389254.0,524287.0,241436.0,347211.0
389376.0,524287.0,241445.0,347239.0
389383.0,524287.0,241396.0,347236.0
389464.0,524287.0,241436.0,347264.0
389456.0,524287.0,241434.0,347246.0
389544.0,524287.0,241378.0,347187.0
389570.0,524287.0,241412.0,347205.0
389664.0,524287.0,241334.0,347187.0
389690.0,524287.0,241407.0,347190.0
389752.0,524287.0,241354.0,347168.0
389738.0,524287.0,241364.0,347211.0
389799.0,524287.0,241398.0,347167.0
389859.0,524287.0,241359.0,347168.0
389933.0,524287.0,241393.0,347249.0
389983.0,524287.0,241372.0,347246.0
390033.0,524287.0,241342.0,347251.0
390110.0,524287.0,241354.0,347230.0
390227.0,524287.0,241335.0,347155.0
390205.0,524287.0,241302.0,347179.0
390258.0,524287.0,241259.0,347122.0
390307.0,524287.0,241226.0,347063.0
390341.0,524287.0,241207.0,347040.0
390284.0,524287.0,241204.0,347007.0
390265.0,524287.0,241230.0,347025.0
390303.0,524287.0,241228.0,346962.0
390228.0,524287.0,241188.0,346960.0
390260.0,524287.0,241243.0,346939.0
390163.0,524287.0,241194.0,346948.0
390155.0,524287.0,241221.0,346932.0
390101.0,524287.0,241198.0,346882.0
390063.0,524287.0,241192.0,346897.0
390052.0,524287.0,241210.0,346890.0
389953.0,524287.0,241212.0,346957.0
389971.0,524287.0,241183.0,346885.0
389916.0,524287.0,241207.0,346906.0
389850.0,524287.0,241201.0,346930.0
389884.0,524287.0,241246.0,346922.0
389804.0,524287.0,241203.0,346969.0
389791.0,524287.0,241258.0,346936.0
389762.0,524287.0,241234.0,346954.0
389785.0,524287.0,241245.0,346982.0
389766.0,524287.0,241193.0,346980.0
389723.0,524287.0,241246.0,347016.0
389722.0,524287.0,241263.0,347010.0
389676.0,524287.0,241273.0,347010.0
389649.0,524287.0,241301.0,346991.0
389638.0,524287.0,241278.0,347004.0
389593.0,524287.0,241259.0,347018.0
389575.0,524287.0,241274.0,346988.0
389544.0,524287.0,241277.0,347028.0
389558.0,524287.0,241261.0,346949.0
389434.0,524287.0,241251.0,346916.0
389445.0,524287.0,241261.0,346971.0
389477.0,524287.0,241231.0,346942.0
389382.0,524287.0,241228.0,347000.0
389347.0,524287.0,241265.0,347018.0
389272.0,524287.0,241273.0,346981.0
389267.0,524287.0,241285.0,347039.0
389250.0,524287.0,241300.0,347033.0
389281.0,524287.0,241296.0,347078.0
389253.0,524287.0,241308.0,347079.0
389270.0,524287.0,241319.0,347093.0
389251.0,524287.0,241333.0,347108.0
389222.0,524287.0,241328.0,347124.0
389307.0,524287.0,241351.0,347159.0
389270.0,524287.0,241330.0,347111.0
389243.0,524287.0,241314.0,347100.0
389161.0,524287.0,241323.0,347106.0
389110.0,524287.0,241328.0,347157.0
389087.0,524287.0,241344.0,347123.0
389173.0,524287.0,241336.0,347141.0
389107.0,524287.0,241371.0,347176.0
389097.0,524287.0,241330.0,347157.0
389085.0,524287.0,241350.0,347201.0
389108.0,524287.0,241364.0,347189.0
389108.0,524287.0,241366.0,347206.0
389099.0,524287.0,241342.0,347190.0
389149.0,524287.0,241356.0,347153.0
389090.0,524287.0,241365.0,347161.0
389083.0,524287.0,241336.0,347197.0
389112.0,524287.0,241334.0,347191.0
389055.0,524287.0,241357.0,347190.0
389047.0,524287.0,241317.0,347176.0
389094.0,524287.0,241340.0,347130.0
389068.0,524287.0,241256.0,347154.0
389044.0,524287.0,241284.0,347155.0
389039.0,524287.0,241326.0,347144.0
388982.0,524287.0,241284.0,347184.0
389007.0,524287.0,241327.0,347169.0
388998.0,524287.0,241293.0,347225.0
389054.0,524287.0,241300.0,347196.0
389038.0,524287.0,241333.0,347166.0
389058.0,524287.0,241339.0,347212.0
389033.0,524287.0,241309.0,347190.0
389053.0,524287.0,241330.0,347202.0
389074.0,524287.0,241307.0,347220.0
389081.0,524287.0,241349.0,347226.0
389086.0,524287.0,241339.0,347245.0
389137.0,524287.0,241334.0,347226.0
389095.0,524287.0,241346.0,347260.0
389086.0,524287.0,241309.0,347240.0
389133.0,524287.0,241361.0,347281.0
389116.0,524287.0,241321.0,347280.0
389126.0,524287.0,241333.0,347264.0
389139.0,524287.0,241369.0,347276.0
389100.0,524287.0,241348.0,347282.0
389178.0,524287.0,241341.0,347295.0
389183.0,524287.0,241349.0,347332.0
389150.0,524287.0,241346.0,347293.0
389143.0,524287.0,241368.0,347284.0
389185.0,524287.0,241359.0,347310.0
389135.0,524287.0,241349.0,347289.0
389139.0,524287.0,241340.0,347323.0
389184.0,524287.0,241296.0,347300.0
389158.0,524287.0,241278.0,347255.0
389138.0,524287.0,241241.0,347160.0
389081.0,524287.0,241241.0,347136.0
389036.0,524287.0,241197.0,347053.0
388903.0,524287.0,241172.0,347034.0
388825.0,524287.0,241164.0,347004.0
388690.0,524287.0,241140.0,346960.0
388572.0,524287.0,241189.0,346914.0
388419.0,524287.0,241163.0,346890.0
388207.0,524287.0,241165.0,346891.0
388060.0,524287.0,241082.0,346822.0
387877.0,524287.0,241112.0,346838.0
387687.0,524287.0,241167.0,346804.0
387574.0,524287.0,241123.0,346851.0
387391.0,524287.0,241110.0,346836.0
387268.0,524287.0,241134.0,346791.0
387156.0,524287.0,241109.0,346842.0
386972.0,524287.0,241097.0,346832.0
386897.0,524287.0,241114.0,346801.0
386792.0,524287.0,241108.0,346807.0
386644.0,524287.0,241124.0,346800.0
386570.0,524287.0,241116.0,346783.0
386423.0,524287.0,241072.0,346785.0
386380.0,524287.0,241102.0,346758.0
386247.0,524287.0,241050.0,346803.0
386162.0,524287.0,241052.0,346767.0
386034.0,524287.0,241058.0,346738.0
385896.0,524287.0,241048.0,346749.0
385830.0,524287.0,241010.0,346692.0
385679.0,524287.0,240991.0,346659.0
385571.0,524287.0,240997.0,346647.0
385391.0,524287.0,240974.0,346623.0
385236.0,524287.0,240958.0,346646.0
385117.0,524287.0,240960.0,346651.0
384973.0,524287.0,240950.0,346636.0
384819.0,524287.0,240929.0,346538.0
384705.0,524287.0,240910.0,346586.0
384524.0,524287.0,240882.0,346542.0
384403.0,524287.0,240882.0,346498.0
384266.0,524287.0,240848.0,346483.0
384113.0,524287.0,240825.0,346492.0
383982.0,524287.0,240818.0,346464.0
383867.0,524287.0,240816.0,346500.0
383671.0,524287.0,240763.0,346446.0
383660.0,524287.0,240796.0,346456.0
383514.0,524287.0,240758.0,346429.0
383478.0,524287.0,240776.0,346447.0
383382.0,524287.0,240778.0,346403.0
383337.0,524287.0,240729.0,346420.0
383188.0,524287.0,240745.0,346467.0
383075.0,524287.0,240719.0,346430.0
383069.0,524287.0,240735.0,346442.0
382896.0,524287.0,240726.0,346416.0
382863.0,524287.0,240718.0,346437.0
382799.0,524287.0,240703.0,346398.0
382650.0,524287.0,240681.0,346419.0
382647.0,524287.0,240731.0,346362.0
382540.0,524287.0,240696.0,346395.0
382494.0,524287.0,240675.0,346379.0
382419.0,524287.0,240681.0,346372.0
382372.0,524287.0,240661.0,346375.0
382283.0,524287.0,240688.0,346398.0
382192.0,524287.0,240680.0,346392.0
382144.0,524287.0,240609.0,346417.0
382087.0,524287.0,240636.0,346343.0
382070.0,524287.0,240615.0,346361.0
381950.0,524287.0,240594.0,346337.0
381901.0,524287.0,240568.0,346309.0
381768.0,524287.0,240584.0,346327.0
381812.0,524287.0,240571.0,346317.0
381734.0,524287.0,240542.0,346311.0
381716.0,524287.0,240546.0,346323.0
381678.0,524287.0,240512.0,346325.0
381656.0,524287.0,240491.0,346291.0
381557.0,524287.0,240485.0,346326.0
381506.0,524287.0,240488.0,346285.0
381452.0,524287.0,240481.0,346291.0
381393.0,524287.0,240491.0,346296.0
381358.0,524287.0,240476.0,346330.0
381316.0,524287.0,240455.0,346297.0
381249.0,524287.0,240454.0,346320.0
381216.0,524287.0,240455.0,346313.0
381144.0,524287.0,240436.0,346269.0
381059.0,524287.0,240411.0,346281.0
381084.0,524287.0,240412.0,346226.0
381018.0,524287.0,240408.0,346242.0
380979.0,524287.0,240395.0,346271.0
380965.0,524287.0,240421.0,346279.0
380931.0,524287.0,240405.0,346272.0
380910.0,524287.0,240369.0,346291.0
380889.0,524287.0,240397.0,346336.0
380883.0,524287.0,240386.0,346315.0
380844.0,524287.0,240402.0,346271.0
380819.0,524287.0,240353.0,346270.0
380783.0,524287.0,240341.0,346240.0
380740.0,524287.0,240285.0,346186.0
380649.0,524287.0,240237.0,346123.0
380419.0,524287.0,240204.0,346052.0
380267.0,524287.0,240153.0,345966.0
