348414.0,485053.0,221832.0,323918.0
347475.0,483663.0,221208.0,322762.0
346521.0,482386.0,220440.0,321543.0
345667.0,481302.0,219618.0,320246.0
345019.0,480400.0,218759.0,318820.0
344506.0,479806.0,217927.0,317428.0
344158.0,479301.0,217216.0,316291.0
343922.0,478966.0,216522.0,315157.0
343811.0,478921.0,215709.0,314007.0
343816.0,479051.0,214845.0,312706.0
343903.0,479198.0,213943.0,311316.0
344044.0,479526.0,213137.0,309973.0
344286.0,479927.0,212450.0,308882.0
344502.0,480403.0,211831.0,307966.0
344758.0,480945.0,211392.0,307267.0
344993.0,481318.0,211026.0,306917.0
345112.0,481633.0,210669.0,306588.0
345076.0,481677.0,210391.0,306352.0
345005.0,481685.0,210152.0,306159.0
344837.0,481603.0,209893.0,305944.0
344651.0,481351.0,209749.0,305953.0
344359.0,480968.0,209794.0,306193.0
343979.0,480426.0,210083.0,306527.0
343382.0,479731.0,210560.0,306925.0
342713.0,478819.0,211181.0,307351.0
341924.0,477806.0,211970.0,307884.0
341079.0,476661.0,212810.0,308515.0
340178.0,475349.0,213438.0,309068.0
339269.0,474067.0,213803.0,309484.0
338385.0,472787.0,213891.0,309658.0
337539.0,471670.0,213850.0,309646.0
336816.0,470837.0,213725.0,309587.0
336084.0,469817.0,213710.0,309574.0
335269.0,468689.0,213751.0,309668.0
334362.0,467423.0,213700.0,309784.0
333404.0,466040.0,213664.0,309857.0
332421.0,464606.0,213617.0,309840.0
331392.0,463075.0,213444.0,309725.0
330385.0,461577.0,213273.0,309527.0
329376.0,460135.0,213110.0,309256.0
328419.0,458590.0,212916.0,309018.0
327497.0,457145.0,212875.0,308877.0
326588.0,455678.0,212765.0,308682.0
325589.0,454313.0,212726.0,308547.0
324613.0,452883.0,212762.0,308355.0
323767.0,451430.0,212640.0,308070.0
322942.0,449995.0,212475.0,307751.0
322112.0,448582.0,212091.0,307374.0
321271.0,447255.0,211760.0,307062.0
320400.0,445811.0,211506.0,306817.0
319497.0,444440.0,211434.0,306643.0
318586.0,442923.0,211469.0,306583.0
317717.0,441539.0,211466.0,306309.0
316836.0,440183.0,211351.0,305999.0
316120.0,438860.0,211236.0,305542.0
315343.0,437955.0,211072.0,305116.0
314638.0,436894.0,210870.0,304716.0
314028.0,435765.0,210736.0,304505.0
313262.0,434624.0,210742.0,304429.0
312527.0,433448.0,210675.0,304328.0
311819.0,432277.0,210630.0,304090.0
311092.0,431147.0,210582.0,303934.0
310440.0,430057.0,210567.0,303691.0
309809.0,429031.0,210453.0,303376.0
309203.0,427999.0,210413.0,303106.0
308624.0,427023.0,210379.0,302969.0
308060.0,426112.0,210421.0,302948.0
307489.0,425214.0,210555.0,303067.0
306983.0,424381.0,210676.0,303147.0
306494.0,423520.0,210663.0,302985.0
306073.0,422809.0,210493.0,302721.0
305686.0,422182.0,210318.0,302520.0
305352.0,421670.0,210280.0,302492.0
304970.0,421084.0,210270.0,302598.0
304609.0,420501.0,210311.0,302677.0
304272.0,419814.0,210340.0,302705.0
303963.0,419394.0,210352.0,302650.0
303655.0,418870.0,210313.0,302480.0
303444.0,418468.0,210218.0,302344.0
303240.0,418102.0,210153.0,302279.0
302982.0,417757.0,210184.0,302379.0
302718.0,417293.0,210204.0,302347.0
302505.0,416869.0,210240.0,302370.0
302317.0,416477.0,210130.0,302310.0
302118.0,416135.0,210020.0,302137.0
301966.0,415888.0,209895.0,301940.0
301803.0,415576.0,209795.0,301831.0
301662.0,415312.0,209762.0,301739.0
301508.0,414981.0,209780.0,301779.0
301322.0,414709.0,209786.0,301739.0
301219.0,414421.0,209619.0,301652.0
301111.0,414281.0,209483.0,301439.0
301022.0,414090.0,209441.0,301368.0
300918.0,413908.0,209426.0,301298.0
300827.0,413803.0,209398.0,301184.0
300710.0,413647.0,209443.0,301128.0
300634.0,413467.0,209529.0,301154.0
300495.0,413233.0,209534.0,300976.0
300430.0,413021.0,209468.0,300856.0
300423.0,412979.0,209428.0,300700.0
300365.0,412971.0,209437.0,300643.0
300349.0,412837.0,209472.0,300622.0
300267.0,412733.0,209519.0,300606.0
300230.0,412654.0,209573.0,300574.0
300188.0,412574.0,209553.0,300578.0
300174.0,412501.0,209563.0,300482.0
300168.0,412539.0,209597.0,300479.0
300180.0,412516.0,209599.0,300504.0
300159.0,412512.0,209615.0,300487.0
300158.0,412467.0,209568.0,300475.0
300174.0,412483.0,209588.0,300457.0
300209.0,412493.0,209580.0,300407.0
300220.0,412574.0,209587.0,300413.0
300265.0,412547.0,209554.0,300393.0
300280.0,412543.0,209559.0,300354.0
300322.0,412600.0,209527.0,300393.0
300310.0,412589.0,209589.0,300394.0
300333.0,412611.0,209610.0,300419.0
300388.0,412647.0,209607.0,300414.0
300476.0,412734.0,209587.0,300422.0
300524.0,412809.0,209605.0,300370.0
300583.0,412881.0,209631.0,300401.0
300619.0,412982.0,209570.0,300409.0
300609.0,412963.0,209576.0,300389.0
300715.0,413052.0,209666.0,300401.0
300736.0,413169.0,209653.0,300481.0
300809.0,413270.0,209659.0,300453.0
300866.0,413289.0,209687.0,300457.0
300915.0,413430.0,209674.0,300438.0
300967.0,413512.0,209616.0,300394.0
301082.0,413603.0,209602.0,300372.0
301196.0,413722.0,209633.0,300354.0
301183.0,413836.0,209656.0,300427.0
301265.0,413897.0,209663.0,300421.0
301295.0,413930.0,209634.0,300361.0
301345.0,414077.0,209640.0,300386.0
301418.0,414130.0,209654.0,300422.0
301475.0,414248.0,209651.0,300392.0
301569.0,414291.0,209657.0,300352.0
301582.0,414369.0,209669.0,300361.0
301637.0,414429.0,209633.0,300324.0
301672.0,414505.0,209619.0,300273.0
301752.0,414557.0,209648.0,300329.0
301760.0,414591.0,209645.0,300351.0
301797.0,414624.0,209633.0,300321.0
301835.0,414719.0,209644.0,300310.0
301850.0,414764.0,209630.0,300351.0
301917.0,414826.0,209652.0,300360.0
301941.0,414867.0,209678.0,300447.0
301994.0,414907.0,209714.0,300418.0
302035.0,414968.0,209667.0,300376.0
302057.0,415009.0,209629.0,300330.0
302126.0,415075.0,209605.0,300334.0
302153.0,415113.0,209646.0,300375.0
302162.0,415191.0,209669.0,300466.0
302205.0,415227.0,209698.0,300454.0
302285.0,415265.0,209694.0,300496.0
302335.0,415348.0,209726.0,300543.0
302361.0,415453.0,209708.0,300608.0
302413.0,415522.0,209721.0,300546.0
302484.0,415638.0,209677.0,300464.0
302549.0,415739.0,209651.0,300384.0
302650.0,415826.0,209648.0,300416.0
302676.0,415999.0,209675.0,300490.0
302745.0,416065.0,209689.0,300586.0
302793.0,416123.0,209699.0,300627.0
302798.0,416184.0,209728.0,300614.0
302862.0,416188.0,209720.0,300573.0
302919.0,416290.0,209655.0,300549.0
303033.0,416397.0,209656.0,300539.0
303095.0,416479.0,209684.0,300561.0
303124.0,416594.0,209678.0,300569.0
303221.0,416706.0,209658.0,300559.0
303299.0,416785.0,209677.0,300568.0
303341.0,416884.0,209682.0,300610.0
303412.0,416888.0,209674.0,300570.0
303442.0,416995.0,209656.0,300518.0
303532.0,417067.0,209620.0,300477.0
303569.0,417236.0,209666.0,300547.0
303622.0,417201.0,209639.0,300558.0
303677.0,417297.0,209666.0,300547.0
303718.0,417388.0,209653.0,300559.0
303807.0,417450.0,209657.0,300577.0
303849.0,417509.0,209669.0,300563.0
303849.0,417555.0,209656.0,300555.0
303904.0,417587.0,209681.0,300585.0
303974.0,417667.0,209688.0,300619.0
303951.0,417654.0,209683.0,300607.0
304017.0,417774.0,209714.0,300621.0
304085.0,417779.0,209729.0,300607.0
304079.0,417830.0,209733.0,300661.0
304141.0,417903.0,209753.0,300641.0
304184.0,417972.0,209717.0,300709.0
304202.0,417988.0,209818.0,300710.0
304253.0,418098.0,209769.0,300657.0
304365.0,418115.0,209719.0,300585.0
304394.0,418231.0,209727.0,300520.0
304458.0,418313.0,209685.0,300596.0
304504.0,418329.0,209696.0,300641.0
304539.0,418436.0,209723.0,300672.0
304614.0,418471.0,209736.0,300639.0
304705.0,418596.0,209733.0,300656.0
304729.0,418726.0,209730.0,300693.0
304809.0,418828.0,209735.0,300704.0
304836.0,418900.0,209720.0,300679.0
304923.0,418982.0,209655.0,300645.0
305077.0,419136.0,209675.0,300666.0
305106.0,419229.0,209660.0,300701.0
305206.0,419344.0,209674.0,300750.0
305314.0,419461.0,209691.0,300748.0
305331.0,419539.0,209676.0,300812.0
305479.0,419680.0,209673.0,300793.0
305522.0,419807.0,209665.0,300766.0
305620.0,419902.0,209619.0,300803.0
305709.0,420046.0,209576.0,300791.0
305765.0,420168.0,209550.0,300710.0
305867.0,420284.0,209560.0,300719.0
305937.0,420451.0,209549.0,300779.0
306019.0,420515.0,209565.0,300820.0
306098.0,420590.0,209566.0,300878.0
306158.0,420701.0,209536.0,300787.0
306246.0,420750.0,209472.0,300791.0
306312.0,420901.0,209459.0,300799.0
306353.0,420967.0,209496.0,300836.0
306399.0,420993.0,209444.0,300860.0
306492.0,421150.0,209485.0,300873.0
306512.0,421196.0,209488.0,300897.0
306558.0,421229.0,209490.0,301000.0
306624.0,421349.0,209515.0,301037.0
306730.0,421451.0,209510.0,301024.0
306783.0,421512.0,209477.0,300980.0
306861.0,421735.0,209508.0,300963.0
306944.0,421801.0,209516.0,300999.0
306998.0,421927.0,209471.0,301012.0
307072.0,422012.0,209424.0,301001.0
307140.0,422138.0,209468.0,300981.0
307219.0,422268.0,209429.0,301016.0
307303.0,422379.0,209450.0,301077.0
307388.0,422460.0,209485.0,301098.0
307452.0,422593.0,209421.0,301091.0
307564.0,422731.0,209447.0,301109.0
307626.0,422789.0,209425.0,301153.0
307693.0,422908.0,209439.0,301206.0
307740.0,422965.0,209405.0,301154.0
307830.0,423083.0,209404.0,301152.0
307953.0,423151.0,209372.0,301064.0
307944.0,423316.0,209394.0,301140.0
307998.0,423360.0,209373.0,301174.0
308118.0,423456.0,209390.0,301206.0
308136.0,423601.0,209390.0,301221.0
308199.0,423688.0,209369.0,301231.0
308292.0,423815.0,209366.0,301253.0
308356.0,423940.0,209351.0,301216.0
308442.0,424032.0,209379.0,301272.0
308523.0,424151.0,209423.0,301273.0
308623.0,424288.0,209387.0,301353.0
308730.0,424404.0,209407.0,301301.0
308793.0,424549.0,209370.0,301318.0
308885.0,424658.0,209386.0,301414.0
308973.0,424763.0,209419.0,301473.0
308988.0,424922.0,209500.0,301596.0
309080.0,425043.0,209493.0,301632.0
309170.0,425148.0,209456.0,301547.0
309271.0,425249.0,209424.0,301573.0
309380.0,425380.0,209411.0,301487.0
309460.0,425498.0,209356.0,301501.0
309535.0,425695.0,209377.0,301503.0
309624.0,425800.0,209353.0,301484.0
309664.0,425890.0,209341.0,301479.0
309724.0,425986.0,209331.0,301469.0
309834.0,426093.0,209301.0,301506.0
309915.0,426220.0,209305.0,301524.0
310024.0,426335.0,209354.0,301577.0
310058.0,426397.0,209368.0,301675.0
310136.0,426491.0,209377.0,301673.0
310182.0,426590.0,209397.0,301797.0
310257.0,426745.0,209422.0,301873.0
310271.0,426810.0,209400.0,301960.0
310364.0,426960.0,209444.0,301940.0
310409.0,427085.0,209414.0,301992.0
310556.0,427230.0,209428.0,302006.0
310695.0,427352.0,209427.0,302000.0
310777.0,427491.0,209425.0,301998.0
310890.0,427648.0,209410.0,302035.0
310927.0,427735.0,209425.0,302113.0
311060.0,427899.0,209432.0,302106.0
311166.0,428121.0,209474.0,302091.0
311261.0,428216.0,209445.0,302123.0
311383.0,428380.0,209448.0,302074.0
311470.0,428509.0,209429.0,302079.0
311574.0,428665.0,209454.0,302124.0
311629.0,428786.0,209471.0,302154.0
311748.0,428899.0,209440.0,302270.0
311918.0,429200.0,209579.0,302484.0
311965.0,429306.0,209626.0,302509.0
312120.0,429520.0,209619.0,302559.0
312266.0,429669.0,209607.0,302498.0
312361.0,429837.0,209630.0,302529.0
312475.0,429999.0,209626.0,302590.0
312543.0,430159.0,209601.0,302604.0
312650.0,430314.0,209669.0,302621.0
312793.0,430501.0,209640.0,302647.0
312902.0,430715.0,209663.0,302697.0
313009.0,430819.0,209701.0,302758.0
313060.0,430974.0,209719.0,302817.0
313192.0,431186.0,209697.0,302748.0
313286.0,431336.0,209652.0,302668.0
313431.0,431481.0,209588.0,302679.0
313501.0,431599.0,209646.0,302749.0
313593.0,431774.0,209714.0,302863.0
313713.0,431910.0,209718.0,302946.0
313845.0,432120.0,209682.0,302961.0
313945.0,432251.0,209662.0,302942.0
314064.0,432419.0,209637.0,302909.0
314263.0,432692.0,209613.0,302883.0
314387.0,432893.0,209602.0,302898.0
314558.0,433176.0,209590.0,302872.0
314747.0,433388.0,209620.0,302924.0
314840.0,433626.0,209645.0,303021.0
314976.0,433741.0,209638.0,303024.0
315128.0,433956.0,209594.0,302996.0
315246.0,434126.0,209584.0,302997.0
315336.0,434275.0,209591.0,303037.0
315450.0,434361.0,209565.0,303050.0
315469.0,434521.0,209597.0,303057.0
315601.0,434636.0,209586.0,303080.0
315641.0,434812.0,209559.0,303067.0
315799.0,435012.0,209541.0,303121.0
315881.0,435190.0,209600.0,303207.0
315985.0,435296.0,209675.0,303267.0
316080.0,435448.0,209671.0,303282.0
316174.0,435608.0,209694.0,303335.0
316229.0,435739.0,209705.0,303329.0
316367.0,435895.0,209726.0,303371.0
316461.0,436050.0,209742.0,303404.0
316555.0,436195.0,209750.0,303463.0
316664.0,436323.0,209774.0,303453.0
316754.0,436581.0,209791.0,303542.0
316793.0,436655.0,209799.0,303554.0
316944.0,436801.0,209862.0,303625.0
317010.0,436942.0,209895.0,303669.0
317064.0,437078.0,209880.0,303661.0
317182.0,437191.0,209846.0,303685.0
317348.0,437433.0,209881.0,303629.0
317507.0,437629.0,209920.0,303690.0
317564.0,437819.0,209930.0,303729.0
317663.0,437974.0,209947.0,303740.0
317759.0,438049.0,209939.0,303821.0
317883.0,438200.0,209956.0,303827.0
317938.0,438374.0,209984.0,303846.0
318095.0,438459.0,209974.0,303859.0
318107.0,438628.0,209989.0,303894.0
318198.0,438746.0,210001.0,303950.0
318262.0,438873.0,210004.0,303993.0
318390.0,438961.0,210008.0,304015.0
318494.0,439141.0,209981.0,304016.0
318550.0,439338.0,209971.0,304012.0
318724.0,439495.0,209981.0,304047.0
318805.0,439686.0,210026.0,304119.0
318920.0,439826.0,209996.0,304160.0
318988.0,440036.0,210039.0,304190.0
319093.0,440176.0,210039.0,304204.0
319213.0,440380.0,209994.0,304200.0
319382.0,440643.0,209998.0,304196.0
319491.0,440771.0,209989.0,304256.0
319624.0,440966.0,210011.0,304279.0
319742.0,441175.0,210012.0,304281.0
319858.0,441377.0,210003.0,304301.0
319948.0,441518.0,210009.0,304325.0
320068.0,441723.0,210014.0,304295.0
320168.0,441894.0,209972.0,304319.0
320311.0,442038.0,210000.0,304343.0
320397.0,442248.0,209992.0,304368.0
320493.0,442378.0,210006.0,304401.0
320629.0,442613.0,210018.0,304425.0
320744.0,442841.0,210008.0,304419.0
320885.0,442962.0,210021.0,304435.0
321010.0,443234.0,210033.0,304491.0
321155.0,443411.0,209994.0,304449.0
321280.0,443595.0,210026.0,304490.0
321378.0,443805.0,210011.0,304484.0
321535.0,443970.0,210055.0,304553.0
321633.0,444203.0,210062.0,304530.0
321734.0,444386.0,210032.0,304556.0
321856.0,444591.0,210054.0,304546.0
321938.0,444674.0,210066.0,304516.0
322090.0,444928.0,210068.0,304557.0
322167.0,445111.0,210061.0,304528.0
322330.0,445275.0,210059.0,304552.0
322432.0,445482.0,210081.0,304559.0
322537.0,445610.0,210034.0,304511.0
322681.0,445797.0,210013.0,304503.0
322800.0,445999.0,210011.0,304454.0
322913.0,446157.0,209997.0,304500.0
322995.0,446384.0,210000.0,304474.0
323100.0,446471.0,210058.0,304492.0
323203.0,446576.0,210001.0,304482.0
323255.0,446796.0,210011.0,304521.0
323419.0,446965.0,210041.0,304557.0
323492.0,447065.0,210050.0,304605.0
323615.0,447322.0,210119.0,304671.0
323731.0,447441.0,210128.0,304726.0
323815.0,447649.0,210173.0,304768.0
323900.0,447860.0,210186.0,304802.0
324116.0,448085.0,210198.0,304795.0
324230.0,448215.0,210228.0,304843.0
324350.0,448466.0,210248.0,304841.0
324508.0,448656.0,210230.0,304792.0
324634.0,448800.0,210220.0,304844.0
324779.0,449076.0,210236.0,304784.0
324916.0,449249.0,210196.0,304775.0
325007.0,449412.0,210170.0,304781.0
325097.0,449521.0,210174.0,304783.0
325205.0,449719.0,210204.0,304843.0
325297.0,449863.0,210169.0,304783.0
325378.0,449966.0,210184.0,304748.0
325474.0,450118.0,210151.0,304706.0
325545.0,450242.0,210170.0,304758.0
325557.0,450339.0,210196.0,304772.0
325644.0,450407.0,210174.0,304776.0
325744.0,450535.0,210159.0,304823.0
325808.0,450642.0,210204.0,304821.0
325889.0,450805.0,210204.0,304804.0
325915.0,450904.0,210168.0,304795.0
326014.0,451015.0,210180.0,304822.0
326087.0,451117.0,210159.0,304788.0
326185.0,451260.0,210170.0,304748.0
326302.0,451433.0,210159.0,304823.0
326396.0,451534.0,210188.0,304838.0
326438.0,451713.0,210249.0,304862.0
326570.0,451808.0,210162.0,304865.0
326702.0,451994.0,210196.0,304869.0
326822.0,452137.0,210177.0,304850.0
326868.0,452353.0,210200.0,304854.0
326964.0,452428.0,210156.0,304859.0
327114.0,452610.0,210195.0,304947.0
327148.0,452651.0,210197.0,304965.0
327231.0,452755.0,210178.0,304984.0
327237.0,452895.0,210188.0,304980.0
327321.0,453050.0,210118.0,304901.0
327457.0,453185.0,210106.0,304880.0
327602.0,453380.0,210136.0,304914.0
327632.0,453392.0,210103.0,304910.0
327689.0,453502.0,210100.0,304922.0
327764.0,453580.0,210064.0,304868.0
327854.0,453791.0,210023.0,304843.0
328031.0,453942.0,210020.0,304855.0
328044.0,454072.0,210039.0,304935.0
328113.0,454152.0,210025.0,304943.0
328231.0,454269.0,210022.0,304905.0
328263.0,454432.0,209971.0,304859.0
328318.0,454425.0,209959.0,304836.0
328377.0,454563.0,209952.0,304818.0
328403.0,454563.0,209968.0,304814.0
328418.0,454490.0,209974.0,304853.0
328401.0,454310.0,209972.0,304840.0
328480.0,454409.0,209926.0,304810.0
328485.0,454427.0,209919.0,304840.0
328515.0,454457.0,209932.0,304800.0
328554.0,454483.0,209903.0,304783.0
328521.0,454473.0,209930.0,304839.0
328560.0,454510.0,209880.0,304860.0
328573.0,454494.0,209906.0,304846.0
328587.0,454520.0,209935.0,304811.0
328618.0,454589.0,209944.0,304895.0
328619.0,454671.0,209966.0,304955.0
328640.0,454711.0,209988.0,304961.0
328710.0,454792.0,210016.0,304980.0
328749.0,454869.0,210004.0,304950.0
328827.0,454913.0,209976.0,304941.0
328897.0,454954.0,209929.0,304918.0
328917.0,455100.0,209936.0,304871.0
328978.0,455146.0,209911.0,304864.0
328987.0,455194.0,209926.0,304908.0
329028.0,455228.0,209936.0,304848.0
329068.0,455364.0,209925.0,304811.0
329152.0,455417.0,209934.0,304822.0
329168.0,455537.0,209912.0,304811.0
329229.0,455576.0,209906.0,304819.0
329275.0,455568.0,209875.0,304814.0
329248.0,455617.0,209897.0,304807.0
329272.0,455643.0,209841.0,304816.0
329239.0,455707.0,209894.0,304756.0
329302.0,455678.0,209866.0,304775.0
329369.0,455785.0,209828.0,304773.0
329340.0,455792.0,209869.0,304811.0
329390.0,455784.0,209855.0,304790.0
329422.0,455807.0,209863.0,304817.0
329414.0,455875.0,209857.0,304779.0
329464.0,455934.0,209838.0,304799.0
329472.0,455943.0,209843.0,304837.0
329464.0,455977.0,209864.0,304877.0
329491.0,455929.0,209840.0,304922.0
329476.0,455986.0,209864.0,304912.0
329501.0,456057.0,209847.0,304927.0
329588.0,456155.0,209864.0,305014.0
329595.0,456140.0,209908.0,305013.0
329548.0,456152.0,209840.0,304978.0
329562.0,456135.0,209809.0,304960.0
329609.0,456146.0,209762.0,304835.0
329645.0,456136.0,209755.0,304872.0
329634.0,456141.0,209758.0,304894.0
329618.0,456137.0,209774.0,304873.0
329612.0,456109.0,209729.0,304841.0
329641.0,456120.0,209682.0,304773.0
329703.0,456122.0,209642.0,304742.0
