295617.0,411921.0,213057.0,310065.0
295630.0,411955.0,212651.0,309574.0
295639.0,411966.0,212345.0,309199.0
295613.0,411847.0,212092.0,308831.0
295512.0,411678.0,211796.0,308592.0
295383.0,411462.0,211469.0,308318.0
295305.0,411342.0,211153.0,308050.0
295316.0,411267.0,210887.0,307811.0
295413.0,411342.0,210722.0,307606.0
295578.0,411479.0,210618.0,307446.0
295751.0,411770.0,210542.0,307383.0
296003.0,412047.0,210573.0,307361.0
296223.0,412402.0,210567.0,307296.0
296472.0,412748.0,210493.0,307255.0
296728.0,413096.0,210411.0,307250.0
297020.0,413506.0,210310.0,307187.0
297278.0,413912.0,210207.0,307142.0
297536.0,414333.0,210087.0,307028.0
297817.0,414682.0,210024.0,306953.0
298127.0,415210.0,209890.0,306950.0
298405.0,415671.0,209824.0,306922.0
298710.0,416077.0,209602.0,306746.0
298985.0,416451.0,209396.0,306550.0
299235.0,416946.0,209138.0,306361.0
299510.0,417287.0,208847.0,306132.0
299712.0,417713.0,208600.0,305928.0
299924.0,418097.0,208314.0,305733.0
300208.0,418477.0,208070.0,305501.0
300456.0,418868.0,207836.0,305291.0
300678.0,419173.0,207578.0,304989.0
300858.0,419533.0,207450.0,304841.0
301031.0,419792.0,207357.0,304676.0
301085.0,419878.0,207159.0,304434.0
301137.0,419953.0,206992.0,304129.0
301122.0,419993.0,206706.0,303701.0
301100.0,419993.0,206479.0,303341.0
301092.0,419927.0,206197.0,303146.0
301075.0,419909.0,205922.0,302844.0
301077.0,419883.0,205663.0,302594.0
301053.0,419842.0,205414.0,302344.0
301066.0,419900.0,205128.0,302073.0
301104.0,419942.0,204829.0,301802.0
301182.0,420104.0,204631.0,301542.0
301270.0,420294.0,204521.0,301302.0
301423.0,420409.0,204391.0,301049.0
301516.0,420620.0,204244.0,300826.0
301644.0,420826.0,204111.0,300645.0
301760.0,420989.0,204003.0,300430.0
301893.0,421239.0,203885.0,300295.0
302036.0,421404.0,203804.0,300152.0
302123.0,421602.0,203731.0,299968.0
302212.0,421781.0,203579.0,299805.0
302327.0,421889.0,203444.0,299565.0
302522.0,422181.0,203295.0,299388.0
302648.0,422353.0,203204.0,299289.0
302783.0,422549.0,203041.0,299175.0
302905.0,422739.0,202898.0,299115.0
302995.0,422817.0,202742.0,299122.0
303057.0,422894.0,202606.0,299044.0
303152.0,422931.0,202483.0,298919.0
303173.0,423045.0,202489.0,298825.0
303213.0,423078.0,202437.0,298764.0
303254.0,423088.0,202379.0,298711.0
303284.0,423073.0,202260.0,298556.0
303299.0,423140.0,202083.0,298392.0
303291.0,423117.0,201999.0,298291.0
303352.0,423098.0,201951.0,298215.0
303354.0,423096.0,201894.0,298132.0
303351.0,423095.0,201915.0,298031.0
303385.0,423077.0,201833.0,297940.0
303430.0,423138.0,201704.0,297818.0
303456.0,423122.0,201626.0,297680.0
303487.0,423216.0,201645.0,297585.0
303515.0,423250.0,201661.0,297502.0
303578.0,423276.0,201671.0,297439.0
303609.0,423332.0,201659.0,297308.0
303679.0,423362.0,201697.0,297204.0
303667.0,423398.0,201652.0,297122.0
303750.0,423435.0,201672.0,297064.0
303833.0,423525.0,201649.0,296999.0
303870.0,423574.0,201663.0,296935.0
303900.0,423585.0,201649.0,296869.0
303949.0,423689.0,201655.0,296842.0
303990.0,423684.0,201683.0,296788.0
303997.0,423738.0,201711.0,296750.0
304036.0,423794.0,201698.0,296702.0
304093.0,423794.0,201715.0,296648.0
304146.0,423892.0,201643.0,296588.0
304226.0,423893.0,201693.0,296651.0
304217.0,423835.0,201689.0,296647.0
304254.0,423885.0,201680.0,296659.0
304282.0,423879.0,201723.0,296629.0
304302.0,423907.0,201755.0,296629.0
304341.0,423978.0,201804.0,296579.0
304353.0,424013.0,201807.0,296538.0
304453.0,424008.0,201885.0,296481.0
304485.0,424078.0,201955.0,296433.0
304517.0,424091.0,202039.0,296462.0
304517.0,424117.0,202079.0,296387.0
304634.0,424214.0,202102.0,296336.0
304640.0,424291.0,202144.0,296297.0
304717.0,424309.0,202181.0,296235.0
304791.0,424450.0,202270.0,296210.0
304850.0,424497.0,202271.0,296203.0
304874.0,424545.0,202288.0,296225.0
304959.0,424622.0,202374.0,296200.0
305004.0,424663.0,202476.0,296182.0
305058.0,424713.0,202530.0,296126.0
305100.0,424811.0,202652.0,296148.0
305177.0,424886.0,202717.0,296211.0
305207.0,424913.0,202800.0,296168.0
305296.0,424977.0,202856.0,296149.0
305321.0,425132.0,202927.0,296115.0
305394.0,425188.0,202942.0,296088.0
305435.0,425305.0,202943.0,296065.0
305491.0,425316.0,202970.0,296100.0
305546.0,425406.0,202973.0,296074.0
305623.0,425470.0,202980.0,296090.0
305659.0,425537.0,202962.0,296090.0
305698.0,425637.0,203021.0,296048.0
305843.0,425739.0,203109.0,296063.0
305887.0,425806.0,203150.0,296073.0
305918.0,425926.0,203156.0,296082.0
305994.0,425961.0,203213.0,296096.0
306092.0,425998.0,203226.0,296064.0
306119.0,426107.0,203209.0,296032.0
306116.0,426109.0,203217.0,296065.0
306096.0,426031.0,203213.0,296023.0
306058.0,425929.0,203185.0,295992.0
305946.0,425771.0,203163.0,296004.0
305873.0,425513.0,203098.0,295888.0
305734.0,425263.0,203066.0,295818.0
305594.0,425045.0,203061.0,295799.0
305508.0,424773.0,203044.0,295789.0
305336.0,424574.0,203030.0,295754.0
305225.0,424316.0,203018.0,295716.0
305141.0,424157.0,203044.0,295658.0
305076.0,424018.0,202991.0,295616.0
305027.0,423927.0,203014.0,295520.0
304963.0,423815.0,203024.0,295554.0
304974.0,423798.0,203017.0,295524.0
304915.0,423721.0,203010.0,295525.0
304956.0,423663.0,203019.0,295493.0
304919.0,423659.0,202968.0,295476.0
304919.0,423581.0,202978.0,295463.0
304967.0,423622.0,202944.0,295405.0
304937.0,423597.0,202912.0,295418.0
305012.0,423665.0,202853.0,295379.0
305028.0,423655.0,202834.0,295369.0
305069.0,423731.0,202814.0,295395.0
305127.0,423812.0,202800.0,295377.0
305124.0,423861.0,202794.0,295445.0
305197.0,423822.0,202771.0,295426.0
305271.0,423892.0,202714.0,295364.0
305303.0,423930.0,202658.0,295396.0
305297.0,423947.0,202613.0,295366.0
305357.0,423999.0,202575.0,295299.0
305366.0,423968.0,202551.0,295271.0
305430.0,423969.0,202596.0,295267.0
305417.0,423994.0,202585.0,295257.0
305409.0,423993.0,202550.0,295249.0
305431.0,424040.0,202571.0,295212.0
305466.0,424020.0,202536.0,295249.0
305532.0,424043.0,202503.0,295248.0
305526.0,424046.0,202463.0,295230.0
305542.0,424084.0,202413.0,295242.0
305546.0,424115.0,202414.0,295217.0
305624.0,424177.0,202369.0,295249.0
305699.0,424168.0,202344.0,295198.0
305729.0,424310.0,202303.0,295216.0
305788.0,424349.0,202257.0,295202.0
305859.0,424396.0,202208.0,295193.0
305903.0,424549.0,202204.0,295202.0
306035.0,424592.0,202154.0,295203.0
306060.0,424656.0,202164.0,295192.0
306106.0,424775.0,202122.0,295209.0
306186.0,424818.0,202062.0,295124.0
306293.0,424914.0,202067.0,295113.0
306338.0,425011.0,202073.0,295149.0
306447.0,425149.0,202109.0,295190.0
306481.0,425225.0,202155.0,295173.0
306554.0,425381.0,202127.0,295205.0
306642.0,425430.0,202118.0,295192.0
306725.0,425554.0,202130.0,295197.0
306780.0,425646.0,202188.0,295227.0
306858.0,425756.0,202173.0,295243.0
306926.0,425880.0,202226.0,295261.0
307004.0,425951.0,202198.0,295247.0
307023.0,426009.0,202196.0,295281.0
307098.0,426149.0,202142.0,295227.0
307215.0,426193.0,202096.0,295245.0
307276.0,426326.0,202094.0,295281.0
307341.0,426404.0,202060.0,295293.0
307380.0,426483.0,202046.0,295309.0
307472.0,426618.0,202038.0,295306.0
307532.0,426690.0,202013.0,295321.0
307609.0,426797.0,202007.0,295344.0
307688.0,426925.0,202052.0,295342.0
307742.0,426988.0,202063.0,295385.0
307815.0,427099.0,202095.0,295395.0
307898.0,427240.0,202024.0,295389.0
307991.0,427323.0,201994.0,295341.0
308043.0,427414.0,202040.0,295369.0
308104.0,427562.0,202010.0,295433.0
308211.0,427668.0,202003.0,295473.0
308225.0,427740.0,201977.0,295435.0
308356.0,427858.0,201869.0,295416.0
308432.0,427975.0,201890.0,295457.0
308513.0,428048.0,201873.0,295493.0
308532.0,428138.0,201873.0,295480.0
308600.0,428282.0,201896.0,295515.0
308700.0,428381.0,201868.0,295563.0
308760.0,428481.0,201842.0,295562.0
308842.0,428581.0,201810.0,295547.0
308862.0,428710.0,201763.0,295522.0
308931.0,428747.0,201776.0,295559.0
309054.0,428896.0,201765.0,295555.0
309105.0,428989.0,201722.0,295558.0
309207.0,429074.0,201756.0,295578.0
309245.0,429259.0,201756.0,295583.0
309355.0,429308.0,201717.0,295608.0
309424.0,429490.0,201688.0,295590.0
309467.0,429598.0,201669.0,295570.0
309556.0,429676.0,201638.0,295553.0
309606.0,429729.0,201666.0,295640.0
309675.0,429803.0,201637.0,295696.0
309767.0,429911.0,201587.0,295633.0
309797.0,429991.0,201571.0,295663.0
309775.0,430020.0,201560.0,295643.0
309825.0,429962.0,201591.0,295611.0
309794.0,429866.0,201611.0,295581.0
309700.0,429728.0,201609.0,295573.0
309625.0,429515.0,201678.0,295579.0
309514.0,429276.0,201691.0,295555.0
309403.0,429059.0,201688.0,295517.0
309268.0,428849.0,201676.0,295496.0
309141.0,428615.0,201657.0,295431.0
309031.0,428475.0,201631.0,295422.0
308932.0,428234.0,201636.0,295351.0
308899.0,428191.0,201676.0,295338.0
308815.0,428116.0,201646.0,295344.0
308769.0,428007.0,201653.0,295335.0
308729.0,427900.0,201616.0,295344.0
308755.0,427920.0,201597.0,295328.0
308731.0,427907.0,201636.0,295362.0
308748.0,427869.0,201611.0,295331.0
308681.0,427787.0,201624.0,295308.0
308755.0,427783.0,201643.0,295323.0
308752.0,427796.0,201625.0,295291.0
308747.0,427800.0,201613.0,295297.0
308798.0,427826.0,201646.0,295304.0
308786.0,427797.0,201687.0,295244.0
308835.0,427860.0,201706.0,295276.0
308797.0,427858.0,201776.0,295251.0
308865.0,427854.0,201797.0,295245.0
308901.0,427932.0,201789.0,295240.0
308963.0,427989.0,201794.0,295215.0
308966.0,427987.0,201779.0,295258.0
308981.0,428009.0,201766.0,295205.0
308992.0,428010.0,201786.0,295214.0
308971.0,428074.0,201770.0,295212.0
309017.0,428090.0,201762.0,295207.0
309046.0,428006.0,201719.0,295213.0
309063.0,428069.0,201720.0,295179.0
309059.0,428087.0,201657.0,295183.0
309082.0,428086.0,201695.0,295189.0
309136.0,428123.0,201623.0,295155.0
309107.0,428091.0,201664.0,295185.0
309119.0,428133.0,201690.0,295195.0
309149.0,428164.0,201722.0,295144.0
309196.0,428167.0,201713.0,295117.0
309240.0,428263.0,201708.0,295175.0
309292.0,428337.0,201685.0,295169.0
309329.0,428390.0,201629.0,295184.0
309382.0,428420.0,201584.0,295183.0
309404.0,428474.0,201532.0,295145.0
309442.0,428554.0,201528.0,295155.0
309525.0,428661.0,201477.0,295153.0
309593.0,428803.0,201487.0,295168.0
309624.0,428848.0,201460.0,295219.0
309718.0,428970.0,201434.0,295204.0
309792.0,429033.0,201382.0,295181.0
309847.0,429160.0,201380.0,295203.0
309892.0,429244.0,201367.0,295188.0
309941.0,429326.0,201322.0,295189.0
310013.0,429408.0,201329.0,295185.0
310068.0,429512.0,201327.0,295154.0
310156.0,429605.0,201330.0,295205.0
310214.0,429691.0,201312.0,295249.0
310258.0,429771.0,201365.0,295201.0
310369.0,429864.0,201351.0,295209.0
310375.0,430053.0,201368.0,295200.0
310491.0,430082.0,201418.0,295182.0
310496.0,430192.0,201419.0,295187.0
310564.0,430251.0,201447.0,295213.0
310657.0,430361.0,201458.0,295235.0
310751.0,430453.0,201412.0,295259.0
310800.0,430594.0,201449.0,295238.0
310825.0,430630.0,201440.0,295300.0
310913.0,430750.0,201464.0,295267.0
310987.0,430829.0,201488.0,295293.0
311035.0,430955.0,201469.0,295306.0
311159.0,431027.0,201493.0,295299.0
311206.0,431152.0,201502.0,295329.0
311287.0,431236.0,201500.0,295337.0
311326.0,431317.0,201492.0,295359.0
311416.0,431463.0,201417.0,295337.0
311479.0,431546.0,201348.0,295336.0
311500.0,431574.0,201345.0,295332.0
311540.0,431691.0,201273.0,295351.0
311635.0,431741.0,201222.0,295312.0
311663.0,431797.0,201238.0,295336.0
311736.0,431915.0,201223.0,295329.0
311774.0,431958.0,201170.0,295344.0
311857.0,432103.0,201170.0,295342.0
311843.0,432161.0,201158.0,295363.0
311965.0,432224.0,201167.0,295362.0
312023.0,432342.0,201115.0,295377.0
312089.0,432420.0,201118.0,295361.0
312192.0,432539.0,201101.0,295366.0
312197.0,432666.0,201133.0,295373.0
312299.0,432741.0,201176.0,295372.0
312294.0,432789.0,201195.0,295398.0
312391.0,432885.0,201242.0,295363.0
312416.0,432995.0,201261.0,295393.0
312501.0,433071.0,201309.0,295389.0
312564.0,433200.0,201327.0,295414.0
312621.0,433235.0,201349.0,295381.0
312702.0,433345.0,201346.0,295407.0
312759.0,433419.0,201393.0,295403.0
312770.0,433510.0,201427.0,295448.0
312823.0,433548.0,201424.0,295387.0
312859.0,433593.0,201406.0,295424.0
312864.0,433524.0,201364.0,295381.0
312813.0,433406.0,201339.0,295362.0
312704.0,433261.0,201350.0,295376.0
312629.0,433018.0,201318.0,295335.0
312476.0,432805.0,201285.0,295331.0
312383.0,432632.0,201252.0,295285.0
312228.0,432427.0,201174.0,295262.0
312120.0,432201.0,201136.0,295228.0
312022.0,432033.0,201122.0,295257.0
311945.0,431847.0,201108.0,295252.0
311867.0,431737.0,201082.0,295204.0
311808.0,431585.0,201101.0,295206.0
311772.0,431562.0,201113.0,295193.0
311705.0,431458.0,201125.0,295160.0
311659.0,431456.0,201122.0,295151.0
311661.0,431417.0,201188.0,295210.0
311614.0,431410.0,201157.0,295188.0
311677.0,431416.0,201144.0,295177.0
311641.0,431414.0,201115.0,295129.0
311649.0,431331.0,201090.0,295138.0
311631.0,431317.0,201027.0,295192.0
311646.0,431412.0,201014.0,295196.0
311652.0,431347.0,200982.0,295202.0
311650.0,431393.0,200985.0,295201.0
311659.0,431348.0,200967.0,295238.0
311604.0,431352.0,200973.0,295210.0
311645.0,431351.0,200938.0,295143.0
311579.0,431360.0,200970.0,295142.0
311623.0,431300.0,201015.0,295160.0
311592.0,431286.0,201002.0,295143.0
311563.0,431288.0,201037.0,295119.0
311560.0,431259.0,201059.0,295090.0
311531.0,431227.0,201079.0,295090.0
311524.0,431131.0,201108.0,295045.0
311518.0,431071.0,201089.0,295060.0
311455.0,431103.0,201092.0,295051.0
311476.0,431066.0,201103.0,295052.0
311451.0,431141.0,201078.0,295025.0
311459.0,431072.0,201077.0,295075.0
311486.0,431135.0,201069.0,295043.0
311478.0,431075.0,201069.0,295043.0
311510.0,431080.0,201024.0,295013.0
311529.0,431155.0,201029.0,295066.0
311479.0,431192.0,201048.0,295021.0
311555.0,431212.0,201075.0,295040.0
311533.0,431205.0,201070.0,295008.0
311624.0,431239.0,201077.0,295037.0
311626.0,431335.0,201082.0,294989.0
311618.0,431357.0,201119.0,294997.0
311675.0,431350.0,201134.0,295046.0
311736.0,431478.0,201143.0,294985.0
311759.0,431519.0,201141.0,294984.0
311795.0,431595.0,201143.0,295019.0
311851.0,431627.0,201137.0,294991.0
311825.0,431713.0,201148.0,295060.0
311933.0,431754.0,201150.0,295014.0
311926.0,431834.0,201127.0,294997.0
311952.0,431845.0,201113.0,295018.0
311982.0,431928.0,201148.0,295026.0
311985.0,431987.0,201142.0,295033.0
312036.0,432020.0,201134.0,295090.0
312066.0,432121.0,201120.0,295023.0
312112.0,432137.0,201095.0,295030.0
312136.0,432192.0,201095.0,295078.0
312145.0,432274.0,201067.0,295103.0
312212.0,432280.0,201030.0,295104.0
312199.0,432355.0,200971.0,295070.0
312249.0,432382.0,200957.0,295029.0
312267.0,432426.0,200953.0,295080.0
312296.0,432460.0,200937.0,295125.0
312303.0,432485.0,200959.0,295083.0
312387.0,432633.0,200955.0,295132.0
312402.0,432653.0,200973.0,295146.0
312431.0,432740.0,200952.0,295164.0
312508.0,432813.0,200995.0,295137.0
312497.0,432823.0,201013.0,295076.0
312581.0,432920.0,201076.0,295110.0
312640.0,433002.0,201079.0,295109.0
312648.0,433036.0,201099.0,295096.0
312723.0,433124.0,201118.0,295109.0
312748.0,433223.0,201127.0,295068.0
312856.0,433316.0,201069.0,295053.0
312901.0,433459.0,201077.0,295090.0
312922.0,433514.0,201061.0,295075.0
312964.0,433566.0,200989.0,295113.0
313003.0,433645.0,201034.0,295110.0
313049.0,433692.0,201075.0,295083.0
313045.0,433763.0,201147.0,295104.0
313074.0,433808.0,201156.0,295098.0
313149.0,433898.0,201164.0,295088.0
313202.0,433900.0,201164.0,295035.0
313267.0,434030.0,201215.0,295078.0
313312.0,434086.0,201240.0,295143.0
313303.0,434100.0,201217.0,295081.0
313359.0,434235.0,201163.0,295093.0
313407.0,434298.0,201087.0,295100.0
313421.0,434352.0,201078.0,295140.0
313429.0,434405.0,201023.0,295146.0
313474.0,434442.0,200963.0,295198.0
313500.0,434437.0,200902.0,295159.0
313524.0,434452.0,200823.0,295154.0
313479.0,434400.0,200779.0,295188.0
313395.0,434284.0,200741.0,295214.0
313332.0,434052.0,200724.0,295180.0
313175.0,433818.0,200689.0,295199.0
313009.0,433557.0,200640.0,295159.0
312866.0,433353.0,200585.0,295149.0
312712.0,433060.0,200581.0,295079.0
312556.0,432841.0,200563.0,295081.0
312386.0,432644.0,200564.0,295061.0
312304.0,432440.0,200640.0,295043.0
312173.0,432219.0,200718.0,295054.0
312041.0,432098.0,200714.0,295049.0
311943.0,431985.0,200724.0,295004.0
311921.0,431903.0,200710.0,294994.0
311804.0,431825.0,200720.0,294997.0
311746.0,431724.0,200708.0,294982.0
311738.0,431633.0,200685.0,295021.0
311652.0,431567.0,200651.0,294961.0
311593.0,431486.0,200649.0,294974.0
311564.0,431487.0,200653.0,294980.0
311550.0,431435.0,200667.0,294946.0
311548.0,431432.0,200721.0,294971.0
311516.0,431440.0,200758.0,294977.0
311533.0,431418.0,200824.0,294962.0
311508.0,431385.0,200883.0,294943.0
311501.0,431257.0,200922.0,294895.0
311475.0,431353.0,201027.0,294950.0
311473.0,431359.0,201095.0,294953.0
311463.0,431356.0,201134.0,294984.0
311444.0,431282.0,201135.0,294980.0
311385.0,431287.0,201161.0,294938.0
311397.0,431210.0,201157.0,294908.0
311354.0,431222.0,201180.0,294892.0
311304.0,431134.0,201155.0,294916.0
311315.0,431144.0,201194.0,294913.0
311320.0,431128.0,201196.0,294876.0
311258.0,431073.0,201201.0,294838.0
311253.0,431028.0,201279.0,294876.0
311205.0,431030.0,201313.0,294850.0
311175.0,430987.0,201369.0,294804.0
311168.0,430983.0,201389.0,294811.0
311132.0,430928.0,201388.0,294784.0
311140.0,430924.0,201367.0,294767.0
311118.0,430931.0,201430.0,294764.0
311132.0,430985.0,201483.0,294770.0
311144.0,430983.0,201558.0,294804.0
311161.0,431027.0,201635.0,294781.0
311141.0,431005.0,201678.0,294755.0
311158.0,431102.0,201704.0,294741.0
311202.0,431166.0,201642.0,294772.0
311225.0,431197.0,201645.0,294832.0
311261.0,431217.0,201601.0,294796.0
311231.0,431329.0,201658.0,294840.0
311301.0,431336.0,201704.0,294861.0
311295.0,431389.0,201729.0,294839.0
311328.0,431418.0,201724.0,294859.0
311403.0,431544.0,201820.0,294842.0
311421.0,431616.0,201859.0,294899.0
311472.0,431710.0,201910.0,294919.0
311535.0,431786.0,201951.0,294896.0
311569.0,431829.0,201945.0,294904.0
311599.0,431945.0,201994.0,294892.0
311623.0,431976.0,202030.0,294907.0
311706.0,432050.0,202037.0,294967.0
311684.0,432100.0,202102.0,294948.0
311755.0,432202.0,202092.0,294900.0
311769.0,432198.0,202149.0,294937.0
311815.0,432331.0,202144.0,294937.0
311850.0,432285.0,202145.0,294922.0
311881.0,432325.0,202137.0,294866.0
