295185.0,403663.0,213651.0,311318.0
295013.0,403417.0,213255.0,310830.0
294952.0,403240.0,212946.0,310463.0
294941.0,403145.0,212725.0,310125.0
294968.0,403205.0,212614.0,310014.0
295100.0,403389.0,212474.0,309893.0
295309.0,403641.0,212405.0,309812.0
295525.0,404001.0,212284.0,309711.0
295842.0,404361.0,212186.0,309576.0
296118.0,404796.0,212100.0,309482.0
296505.0,405219.0,212007.0,309446.0
296776.0,405685.0,211943.0,309402.0
297090.0,406094.0,211842.0,309315.0
297308.0,406446.0,211708.0,309179.0
297508.0,406779.0,211603.0,309058.0
297607.0,407025.0,211479.0,308898.0
297807.0,407232.0,211420.0,308836.0
297913.0,407377.0,211313.0,308722.0
297987.0,407509.0,211239.0,308658.0
298018.0,407498.0,211088.0,308527.0
298028.0,407492.0,210963.0,308374.0
298003.0,407476.0,210852.0,308227.0
297944.0,407319.0,210815.0,308166.0
297818.0,407174.0,210725.0,308000.0
297742.0,406995.0,210619.0,307829.0
297697.0,406878.0,210500.0,307625.0
297620.0,406769.0,210406.0,307434.0
297589.0,406771.0,210274.0,307251.0
297550.0,406673.0,210152.0,307126.0
297644.0,406773.0,210078.0,306926.0
297655.0,406735.0,209973.0,306748.0
297685.0,406882.0,209966.0,306629.0
297763.0,406924.0,209878.0,306582.0
297828.0,407056.0,209806.0,306425.0
297865.0,407136.0,209722.0,306327.0
297994.0,407240.0,209665.0,306230.0
298011.0,407361.0,209564.0,306073.0
298114.0,407480.0,209468.0,305932.0
298229.0,407623.0,209409.0,305843.0
298232.0,407733.0,209339.0,305691.0
298352.0,407813.0,209293.0,305650.0
298438.0,407909.0,209238.0,305514.0
298505.0,408042.0,209182.0,305420.0
298629.0,408201.0,209118.0,305318.0
298698.0,408292.0,209064.0,305228.0
298733.0,408363.0,209022.0,305176.0
298782.0,408462.0,208955.0,305072.0
298813.0,408471.0,208936.0,304953.0
298901.0,408563.0,208805.0,304850.0
298929.0,408588.0,208716.0,304791.0
298961.0,408697.0,208580.0,304701.0
299022.0,408806.0,208481.0,304601.0
299105.0,408870.0,208387.0,304532.0
299107.0,408939.0,208302.0,304474.0
299183.0,409044.0,208239.0,304419.0
299242.0,409087.0,208151.0,304375.0
299269.0,409103.0,207990.0,304243.0
299299.0,409160.0,207903.0,304167.0
299326.0,409192.0,207806.0,304050.0
299373.0,409316.0,207722.0,304010.0
299422.0,409345.0,207620.0,303924.0
299468.0,409476.0,207587.0,303859.0
299557.0,409578.0,207504.0,303765.0
299609.0,409668.0,207444.0,303687.0
299689.0,409810.0,207295.0,303568.0
299790.0,409920.0,207123.0,303396.0
299846.0,409976.0,207031.0,303244.0
299925.0,410122.0,206909.0,303149.0
300018.0,410231.0,206813.0,303016.0
300114.0,410427.0,206717.0,302997.0
300223.0,410592.0,206624.0,302861.0
300338.0,410743.0,206515.0,302834.0
300422.0,410923.0,206421.0,302762.0
300542.0,411087.0,206327.0,302689.0
300678.0,411266.0,206243.0,302658.0
300757.0,411424.0,206129.0,302587.0
300915.0,411589.0,206035.0,302501.0
300983.0,411781.0,205892.0,302392.0
301122.0,411913.0,205771.0,302312.0
301173.0,412056.0,205629.0,302171.0
301300.0,412195.0,205466.0,301999.0
301373.0,412382.0,205307.0,301880.0
301460.0,412618.0,205173.0,301743.0
301563.0,412731.0,205059.0,301679.0
301675.0,412893.0,204983.0,301634.0
301797.0,413017.0,204896.0,301579.0
301851.0,413151.0,204779.0,301471.0
301946.0,413282.0,204651.0,301384.0
301983.0,413380.0,204533.0,301310.0
302102.0,413558.0,204443.0,301266.0
302185.0,413654.0,204359.0,301201.0
302256.0,413779.0,204251.0,301112.0
302326.0,413946.0,204148.0,300987.0
302449.0,414020.0,204100.0,300890.0
302549.0,414192.0,204045.0,300857.0
302659.0,414398.0,204012.0,300776.0
302792.0,414533.0,203978.0,300715.0
302893.0,414661.0,203955.0,300737.0
302957.0,414804.0,203949.0,300677.0
302954.0,414981.0,203894.0,300599.0
303104.0,415062.0,203869.0,300557.0
303176.0,415180.0,203815.0,300443.0
303269.0,415354.0,203805.0,300402.0
303390.0,415502.0,203780.0,300305.0
303480.0,415637.0,203727.0,300213.0
303612.0,415745.0,203673.0,300068.0
303689.0,415917.0,203656.0,299968.0
303781.0,416102.0,203655.0,299851.0
303908.0,416235.0,203646.0,299792.0
303976.0,416411.0,203670.0,299716.0
304097.0,416589.0,203702.0,299666.0
304193.0,416730.0,203723.0,299599.0
304295.0,416883.0,203776.0,299536.0
304347.0,417031.0,203795.0,299450.0
304457.0,417108.0,203817.0,299380.0
304456.0,417125.0,203844.0,299404.0
304413.0,417079.0,203871.0,299342.0
304415.0,417025.0,203885.0,299331.0
304293.0,416894.0,203866.0,299288.0
304191.0,416704.0,203860.0,299119.0
304026.0,416538.0,203791.0,299043.0
303937.0,416318.0,203715.0,298914.0
303797.0,416105.0,203674.0,298779.0
303665.0,415952.0,203586.0,298652.0
303562.0,415806.0,203502.0,298459.0
303509.0,415745.0,203409.0,298319.0
303499.0,415681.0,203373.0,298213.0
303514.0,415698.0,203318.0,298045.0
303516.0,415684.0,203301.0,297978.0
303586.0,415751.0,203277.0,297880.0
303616.0,415793.0,203252.0,297740.0
303678.0,415856.0,203234.0,297632.0
303742.0,415932.0,203183.0,297561.0
303819.0,415987.0,203154.0,297470.0
303899.0,416135.0,203107.0,297386.0
303964.0,416251.0,203091.0,297287.0
304080.0,416358.0,203076.0,297204.0
304143.0,416503.0,203077.0,297123.0
304197.0,416604.0,203066.0,297068.0
304296.0,416702.0,203059.0,297060.0
304366.0,416830.0,203055.0,297004.0
304427.0,416935.0,203027.0,296965.0
304468.0,416978.0,202999.0,296917.0
304564.0,417101.0,202973.0,296873.0
304640.0,417204.0,202952.0,296829.0
304682.0,417208.0,202940.0,296812.0
304663.0,417307.0,202932.0,296793.0
304686.0,417363.0,202922.0,296776.0
304758.0,417381.0,202895.0,296772.0
304757.0,417361.0,202891.0,296745.0
304826.0,417424.0,202885.0,296755.0
304850.0,417471.0,202873.0,296703.0
304873.0,417560.0,202823.0,296660.0
304916.0,417606.0,202805.0,296622.0
304920.0,417625.0,202787.0,296578.0
305009.0,417667.0,202809.0,296573.0
305093.0,417706.0,202787.0,296540.0
305111.0,417858.0,202762.0,296522.0
305164.0,417961.0,202744.0,296497.0
305242.0,418112.0,202718.0,296456.0
305343.0,418160.0,202696.0,296450.0
305432.0,418308.0,202673.0,296395.0
305499.0,418340.0,202667.0,296403.0
305561.0,418485.0,202691.0,296383.0
305621.0,418628.0,202683.0,296369.0
305707.0,418702.0,202726.0,296396.0
305775.0,418786.0,202731.0,296385.0
305860.0,418878.0,202723.0,296412.0
305912.0,418975.0,202711.0,296386.0
305986.0,419123.0,202668.0,296381.0
306099.0,419224.0,202644.0,296382.0
306160.0,419316.0,202597.0,296335.0
306224.0,419456.0,202567.0,296300.0
306314.0,419586.0,202563.0,296274.0
306383.0,419654.0,202540.0,296309.0
306470.0,419742.0,202491.0,296285.0
306543.0,419903.0,202506.0,296285.0
306626.0,419993.0,202470.0,296261.0
306656.0,420069.0,202477.0,296327.0
306749.0,420194.0,202485.0,296308.0
306855.0,420286.0,202472.0,296260.0
306885.0,420371.0,202499.0,296277.0
306931.0,420452.0,202504.0,296292.0
307005.0,420487.0,202500.0,296274.0
306995.0,420562.0,202462.0,296219.0
307135.0,420716.0,202457.0,296201.0
307217.0,420771.0,202466.0,296236.0
307269.0,420890.0,202437.0,296217.0
307341.0,421013.0,202446.0,296217.0
307415.0,421089.0,202448.0,296207.0
307511.0,421205.0,202415.0,296196.0
307590.0,421259.0,202442.0,296193.0
307613.0,421380.0,202454.0,296182.0
307696.0,421475.0,202492.0,296181.0
307742.0,421543.0,202478.0,296193.0
307809.0,421679.0,202534.0,296220.0
307877.0,421715.0,202508.0,296211.0
307954.0,421907.0,202495.0,296226.0
307999.0,421994.0,202484.0,296212.0
308031.0,422071.0,202458.0,296228.0
308129.0,422225.0,202470.0,296225.0
308199.0,422314.0,202512.0,296246.0
308286.0,422407.0,202488.0,296243.0
308339.0,422528.0,202518.0,296225.0
308418.0,422577.0,202494.0,296198.0
308432.0,422627.0,202499.0,296213.0
308432.0,422554.0,202543.0,296198.0
308402.0,422474.0,202553.0,296208.0
308301.0,422369.0,202593.0,296214.0
308148.0,422171.0,202577.0,296205.0
308092.0,421965.0,202522.0,296184.0
307967.0,421760.0,202492.0,296187.0
307869.0,421546.0,202451.0,296111.0
307683.0,421376.0,202378.0,296101.0
307588.0,421173.0,202366.0,296076.0
307514.0,421001.0,202325.0,296091.0
307442.0,420890.0,202286.0,296012.0
307397.0,420843.0,202246.0,296021.0
307373.0,420765.0,202187.0,296005.0
307350.0,420756.0,202196.0,296066.0
307362.0,420744.0,202158.0,295982.0
307370.0,420713.0,202110.0,295971.0
307438.0,420771.0,202072.0,295965.0
307487.0,420843.0,202024.0,295952.0
307504.0,420884.0,202027.0,295942.0
307598.0,420990.0,202018.0,295959.0
307617.0,420994.0,201978.0,295972.0
307684.0,421120.0,201984.0,296004.0
307724.0,421183.0,201957.0,295983.0
307796.0,421245.0,201921.0,295990.0
307854.0,421332.0,201898.0,295988.0
307892.0,421420.0,201894.0,296008.0
307962.0,421465.0,201859.0,296051.0
307995.0,421559.0,201850.0,295988.0
308034.0,421584.0,201863.0,296030.0
308074.0,421629.0,201872.0,295974.0
308118.0,421609.0,201804.0,295976.0
308119.0,421646.0,201835.0,295988.0
308151.0,421667.0,201761.0,295937.0
308174.0,421701.0,201753.0,295944.0
308173.0,421696.0,201708.0,295978.0
308218.0,421686.0,201673.0,295950.0
308209.0,421765.0,201627.0,295944.0
308223.0,421778.0,201600.0,295958.0
308273.0,421797.0,201633.0,295934.0
308310.0,421861.0,201629.0,295933.0
308337.0,421849.0,201641.0,295927.0
308383.0,421998.0,201623.0,295890.0
308441.0,422024.0,201652.0,295893.0
308491.0,422069.0,201630.0,295940.0
308567.0,422193.0,201596.0,295952.0
308651.0,422246.0,201539.0,295950.0
308679.0,422322.0,201482.0,295937.0
308707.0,422436.0,201419.0,295982.0
308803.0,422547.0,201393.0,295954.0
308831.0,422607.0,201389.0,295983.0
308881.0,422732.0,201341.0,295953.0
308958.0,422779.0,201375.0,295950.0
309052.0,422889.0,201386.0,295978.0
309094.0,422976.0,201391.0,295965.0
309147.0,423071.0,201403.0,295948.0
309203.0,423183.0,201405.0,295902.0
309278.0,423224.0,201419.0,295924.0
309345.0,423310.0,201409.0,295921.0
309398.0,423419.0,201421.0,295923.0
309507.0,423523.0,201405.0,295953.0
309522.0,423614.0,201404.0,295919.0
309625.0,423748.0,201381.0,295950.0
309711.0,423825.0,201421.0,295926.0
309770.0,423841.0,201401.0,295942.0
309837.0,423958.0,201370.0,295943.0
309877.0,424026.0,201346.0,295966.0
309897.0,424090.0,201318.0,295982.0
309982.0,424225.0,201360.0,295961.0
310016.0,424253.0,201328.0,295992.0
310038.0,424318.0,201331.0,295973.0
310113.0,424366.0,201344.0,295987.0
310141.0,424438.0,201352.0,295981.0
310196.0,424515.0,201289.0,295981.0
310251.0,424532.0,201347.0,295982.0
310334.0,424633.0,201330.0,295996.0
310361.0,424737.0,201314.0,296009.0
310455.0,424799.0,201292.0,295981.0
310517.0,424895.0,201299.0,296002.0
310575.0,425017.0,201323.0,295991.0
310610.0,425081.0,201302.0,296000.0
310672.0,425154.0,201326.0,295967.0
310731.0,425212.0,201338.0,295990.0
310822.0,425326.0,201362.0,295972.0
310880.0,425464.0,201402.0,295952.0
310955.0,425550.0,201421.0,295975.0
311035.0,425590.0,201441.0,295979.0
311104.0,425723.0,201512.0,295971.0
311149.0,425828.0,201549.0,295974.0
311230.0,425905.0,201619.0,295952.0
311280.0,425903.0,201683.0,295942.0
311270.0,425878.0,201783.0,295966.0
311198.0,425781.0,201838.0,295970.0
311182.0,425637.0,201902.0,295928.0
311050.0,425444.0,201918.0,295887.0
310936.0,425304.0,201889.0,295867.0
310807.0,425071.0,201908.0,295824.0
310701.0,424858.0,201858.0,295827.0
310633.0,424719.0,201797.0,295779.0
310559.0,424543.0,201696.0,295793.0
310494.0,424402.0,201634.0,295772.0
310408.0,424337.0,201575.0,295794.0
310377.0,424250.0,201618.0,295818.0
310371.0,424185.0,201575.0,295770.0
310379.0,424193.0,201585.0,295845.0
310381.0,424125.0,201574.0,295837.0
310371.0,424129.0,201614.0,295818.0
310446.0,424197.0,201572.0,295793.0
310446.0,424189.0,201564.0,295794.0
310479.0,424234.0,201584.0,295730.0
310545.0,424242.0,201597.0,295766.0
310544.0,424298.0,201652.0,295722.0
310581.0,424319.0,201690.0,295704.0
310568.0,424355.0,201717.0,295675.0
310615.0,424380.0,201730.0,295700.0
310691.0,424434.0,201747.0,295660.0
310726.0,424452.0,201714.0,295641.0
310699.0,424438.0,201692.0,295654.0
310727.0,424477.0,201681.0,295665.0
310744.0,424507.0,201651.0,295680.0
310780.0,424504.0,201637.0,295668.0
310779.0,424510.0,201581.0,295664.0
310801.0,424475.0,201571.0,295679.0
310818.0,424523.0,201555.0,295625.0
310807.0,424564.0,201517.0,295626.0
310865.0,424536.0,201490.0,295601.0
310866.0,424521.0,201472.0,295569.0
310893.0,424525.0,201427.0,295573.0
310878.0,424539.0,201410.0,295559.0
310942.0,424601.0,201353.0,295567.0
310962.0,424582.0,201292.0,295555.0
311004.0,424553.0,201216.0,295539.0
311052.0,424622.0,201167.0,295549.0
311082.0,424671.0,201201.0,295556.0
311180.0,424793.0,201182.0,295536.0
311221.0,424817.0,201177.0,295535.0
311282.0,424878.0,201188.0,295504.0
311320.0,424987.0,201238.0,295508.0
311387.0,425027.0,201266.0,295517.0
311427.0,425061.0,201325.0,295461.0
311498.0,425127.0,201369.0,295495.0
311531.0,425192.0,201442.0,295453.0
311594.0,425278.0,201479.0,295444.0
311626.0,425387.0,201483.0,295430.0
311694.0,425399.0,201557.0,295494.0
311788.0,425508.0,201548.0,295427.0
311857.0,425599.0,201583.0,295441.0
311885.0,425662.0,201560.0,295463.0
311963.0,425789.0,201629.0,295422.0
312017.0,425895.0,201660.0,295463.0
312068.0,425902.0,201622.0,295510.0
312147.0,426004.0,201630.0,295475.0
312202.0,426110.0,201632.0,295465.0
312288.0,426173.0,201636.0,295515.0
312316.0,426244.0,201637.0,295486.0
312400.0,426317.0,201646.0,295480.0
312481.0,426414.0,201646.0,295530.0
312491.0,426509.0,201645.0,295502.0
312566.0,426529.0,201683.0,295500.0
312612.0,426644.0,201645.0,295505.0
312646.0,426678.0,201656.0,295536.0
312706.0,426795.0,201680.0,295487.0
312812.0,426843.0,201670.0,295537.0
312843.0,426892.0,201637.0,295558.0
312883.0,427066.0,201669.0,295562.0
312961.0,427069.0,201642.0,295539.0
313003.0,427194.0,201629.0,295539.0
313098.0,427260.0,201643.0,295547.0
313157.0,427366.0,201661.0,295540.0
313220.0,427435.0,201672.0,295545.0
313276.0,427519.0,201687.0,295527.0
313345.0,427601.0,201701.0,295571.0
313400.0,427669.0,201721.0,295542.0
313481.0,427782.0,201797.0,295590.0
313560.0,427869.0,201831.0,295559.0
313587.0,427944.0,201854.0,295581.0
313659.0,428034.0,201838.0,295535.0
313670.0,428177.0,201883.0,295588.0
313786.0,428236.0,201869.0,295565.0
313814.0,428312.0,201915.0,295611.0
313896.0,428406.0,201917.0,295590.0
313951.0,428488.0,201916.0,295600.0
314036.0,428572.0,201889.0,295591.0
314066.0,428591.0,201878.0,295564.0
314099.0,428643.0,201944.0,295581.0
314125.0,428620.0,201972.0,295593.0
314086.0,428525.0,201940.0,295590.0
314010.0,428426.0,201970.0,295556.0
313920.0,428188.0,201964.0,295534.0
313765.0,427956.0,201997.0,295487.0
313657.0,427775.0,201979.0,295491.0
313522.0,427509.0,202005.0,295430.0
313418.0,427338.0,202007.0,295381.0
313308.0,427127.0,202000.0,295339.0
313243.0,427008.0,201975.0,295354.0
313225.0,426894.0,201956.0,295355.0
313123.0,426800.0,201961.0,295311.0
313121.0,426736.0,201963.0,295301.0
313090.0,426641.0,201960.0,295292.0
313074.0,426601.0,201969.0,295310.0
313077.0,426597.0,201977.0,295296.0
313036.0,426579.0,202001.0,295320.0
313078.0,426527.0,202013.0,295286.0
313076.0,426562.0,202009.0,295225.0
313043.0,426541.0,202034.0,295242.0
313112.0,426557.0,202028.0,295225.0
313078.0,426519.0,202032.0,295263.0
313091.0,426553.0,202001.0,295204.0
313150.0,426592.0,202005.0,295174.0
313191.0,426586.0,201999.0,295182.0
313199.0,426624.0,202018.0,295157.0
313201.0,426656.0,202025.0,295168.0
313253.0,426677.0,202011.0,295186.0
313262.0,426631.0,202050.0,295195.0
313262.0,426587.0,202046.0,295172.0
313284.0,426633.0,202067.0,295161.0
313288.0,426606.0,202071.0,295192.0
313368.0,426712.0,202109.0,295181.0
313324.0,426712.0,202093.0,295157.0
313294.0,426680.0,202093.0,295171.0
313314.0,426694.0,202077.0,295180.0
313366.0,426751.0,202070.0,295152.0
313396.0,426744.0,202068.0,295127.0
313376.0,426710.0,202079.0,295163.0
313385.0,426778.0,202118.0,295162.0
313478.0,426776.0,202154.0,295151.0
313508.0,426842.0,202180.0,295135.0
313511.0,426861.0,202194.0,295156.0
313583.0,426969.0,202213.0,295132.0
313593.0,426984.0,202194.0,295072.0
313693.0,427067.0,202230.0,295119.0
313715.0,427142.0,202240.0,295102.0
313785.0,427212.0,202235.0,295143.0
313820.0,427313.0,202219.0,295141.0
313866.0,427376.0,202234.0,295163.0
313941.0,427488.0,202202.0,295161.0
314037.0,427551.0,202230.0,295156.0
314060.0,427687.0,202243.0,295141.0
314156.0,427723.0,202224.0,295196.0
314182.0,427744.0,202233.0,295138.0
314204.0,427883.0,202278.0,295220.0
314242.0,427934.0,202282.0,295232.0
314323.0,428064.0,202304.0,295190.0
314345.0,428122.0,202275.0,295225.0
314430.0,428179.0,202273.0,295198.0
314521.0,428252.0,202316.0,295216.0
314555.0,428388.0,202297.0,295224.0
314616.0,428460.0,202300.0,295276.0
314671.0,428548.0,202318.0,295229.0
314733.0,428599.0,202317.0,295232.0
314799.0,428746.0,202331.0,295264.0
314873.0,428783.0,202311.0,295275.0
314892.0,428884.0,202328.0,295311.0
314958.0,428947.0,202339.0,295288.0
315028.0,429071.0,202357.0,295339.0
315124.0,429156.0,202357.0,295341.0
315146.0,429267.0,202404.0,295348.0
315228.0,429349.0,202387.0,295392.0
315290.0,429470.0,202439.0,295372.0
315369.0,429518.0,202461.0,295377.0
315434.0,429616.0,202436.0,295354.0
315463.0,429694.0,202437.0,295366.0
315508.0,429807.0,202425.0,295378.0
315578.0,429873.0,202417.0,295404.0
315599.0,429986.0,202394.0,295396.0
315647.0,430004.0,202385.0,295405.0
315724.0,430068.0,202385.0,295427.0
315772.0,430163.0,202359.0,295432.0
315871.0,430320.0,202355.0,295410.0
315831.0,430342.0,202359.0,295410.0
315947.0,430363.0,202358.0,295406.0
315953.0,430482.0,202329.0,295389.0
316037.0,430522.0,202350.0,295351.0
316078.0,430587.0,202368.0,295430.0
316158.0,430724.0,202365.0,295469.0
316168.0,430808.0,202347.0,295431.0
316248.0,430893.0,202342.0,295454.0
316314.0,430971.0,202366.0,295444.0
316415.0,431052.0,202406.0,295487.0
316451.0,431173.0,202450.0,295494.0
316468.0,431267.0,202471.0,295458.0
316536.0,431331.0,202458.0,295461.0
316592.0,431337.0,202494.0,295489.0
316612.0,431381.0,202502.0,295485.0
316539.0,431204.0,202540.0,295485.0
316433.0,431067.0,202546.0,295484.0
316302.0,430868.0,202499.0,295473.0
316137.0,430553.0,202530.0,295453.0
315961.0,430329.0,202513.0,295402.0
315797.0,430074.0,202506.0,295352.0
315624.0,429766.0,202534.0,295350.0
315511.0,429551.0,202540.0,295287.0
315365.0,429338.0,202561.0,295273.0
315218.0,429088.0,202544.0,295255.0
315133.0,428995.0,202538.0,295188.0
315011.0,428796.0,202537.0,295125.0
314933.0,428634.0,202519.0,295109.0
314829.0,428545.0,202529.0,295093.0
314720.0,428417.0,202528.0,295070.0
