49532.0,127265.0,112722.0,250447.0
49538.0,127218.0,112724.0,250445.0
49519.0,127200.0,112733.0,250436.0
49491.0,127154.0,112717.0,250411.0
49460.0,127070.0,112713.0,250398.0
49461.0,127051.0,112709.0,250407.0
49454.0,127021.0,112709.0,250382.0
49452.0,126980.0,112702.0,250373.0
49448.0,126956.0,112692.0,250348.0
49422.0,126919.0,112695.0,250344.0
49437.0,126845.0,112710.0,250300.0
49413.0,126834.0,112698.0,250331.0
49401.0,126809.0,112674.0,250310.0
49403.0,126783.0,112665.0,250273.0
49382.0,126739.0,112653.0,250267.0
49376.0,126685.0,112633.0,250235.0
49381.0,126659.0,112639.0,250206.0
49364.0,126642.0,112590.0,250205.0
49353.0,126611.0,112550.0,250173.0
49348.0,126579.0,112571.0,250149.0
49357.0,126566.0,112583.0,250147.0
49340.0,126510.0,112577.0,250130.0
49333.0,126491.0,112546.0,250083.0
49322.0,126459.0,112560.0,250081.0
49312.0,126439.0,112532.0,250078.0
49313.0,126417.0,112572.0,250105.0
49333.0,126369.0,112549.0,250103.0
49304.0,126382.0,112548.0,250111.0
49298.0,126379.0,112542.0,250121.0
49291.0,126353.0,112523.0,250056.0
49289.0,126324.0,112522.0,250064.0
49289.0,126303.0,112499.0,250043.0
49282.0,126274.0,112505.0,250041.0
49278.0,126246.0,112491.0,250023.0
49276.0,126245.0,112502.0,249985.0
49271.0,126211.0,112504.0,249993.0
49249.0,126201.0,112492.0,250016.0
49271.0,126186.0,112499.0,250006.0
49265.0,126178.0,112483.0,249997.0
49245.0,126158.0,112495.0,250035.0
49255.0,126147.0,112478.0,249999.0
49230.0,126130.0,112495.0,250034.0
49249.0,126098.0,112490.0,250000.0
49247.0,126101.0,112473.0,249964.0
49254.0,126087.0,112482.0,249942.0
49230.0,126064.0,112452.0,249976.0
49252.0,126069.0,112455.0,249981.0
49231.0,126071.0,112435.0,249958.0
49224.0,126032.0,112444.0,249882.0
49238.0,126041.0,112446.0,249901.0
49242.0,126033.0,112441.0,249948.0
49228.0,126031.0,112445.0,249934.0
49243.0,126032.0,112427.0,249953.0
49234.0,126041.0,112456.0,249937.0
49227.0,126022.0,112457.0,249937.0
49234.0,126012.0,112485.0,249979.0
49242.0,126007.0,112470.0,249944.0
49227.0,126035.0,112449.0,249978.0
49225.0,126019.0,112466.0,249957.0
49226.0,126001.0,112443.0,249960.0
49238.0,125995.0,112443.0,249938.0
49242.0,126001.0,112420.0,249911.0
49235.0,125984.0,112414.0,249854.0
49235.0,126000.0,112421.0,249892.0
49240.0,125999.0,112401.0,249878.0
49223.0,125986.0,112422.0,249832.0
49226.0,125954.0,112385.0,249800.0
49210.0,125943.0,112397.0,249826.0
49223.0,125916.0,112386.0,249789.0
49216.0,125870.0,112388.0,249765.0
49205.0,125849.0,112381.0,249754.0
49200.0,125841.0,112388.0,249775.0
49211.0,125795.0,112408.0,249775.0
49175.0,125796.0,112395.0,249739.0
49192.0,125749.0,112383.0,249764.0
49174.0,125754.0,112386.0,249755.0
49180.0,125730.0,112412.0,249761.0
49161.0,125709.0,112377.0,249720.0
49157.0,125663.0,112392.0,249668.0
49154.0,125628.0,112375.0,249685.0
49136.0,125628.0,112368.0,249639.0
49132.0,125585.0,112340.0,249640.0
49128.0,125564.0,112320.0,249593.0
49122.0,125527.0,112341.0,249634.0
49108.0,125460.0,112332.0,249595.0
49100.0,125450.0,112306.0,249569.0
49087.0,125421.0,112299.0,249559.0
49086.0,125395.0,112296.0,249520.0
49068.0,125394.0,112294.0,249553.0
49085.0,125327.0,112283.0,249517.0
49076.0,125324.0,112289.0,249553.0
49061.0,125310.0,112274.0,249513.0
49072.0,125285.0,112285.0,249533.0
49049.0,125238.0,112296.0,249465.0
49040.0,125225.0,112281.0,249494.0
49037.0,125224.0,112284.0,249521.0
49030.0,125196.0,112268.0,249468.0
49032.0,125178.0,112265.0,249494.0
49043.0,125159.0,112276.0,249489.0
49021.0,125159.0,112278.0,249497.0
49022.0,125130.0,112279.0,249456.0
49010.0,125112.0,112290.0,249474.0
49008.0,125090.0,112297.0,249472.0
49005.0,125081.0,112283.0,249459.0
49006.0,125084.0,112271.0,249482.0
49000.0,125070.0,112285.0,249434.0
49005.0,125074.0,112251.0,249423.0
49012.0,125042.0,112268.0,249460.0
48998.0,125029.0,112276.0,249400.0
48999.0,125032.0,112267.0,249413.0
49013.0,125007.0,112246.0,249440.0
49013.0,125007.0,112267.0,249413.0
49002.0,125004.0,112274.0,249475.0
48993.0,125007.0,112290.0,249426.0
49002.0,124984.0,112262.0,249418.0
48995.0,124987.0,112268.0,249421.0
48999.0,124968.0,112282.0,249426.0
48995.0,124973.0,112266.0,249434.0
48990.0,124990.0,112256.0,249374.0
48988.0,124989.0,112237.0,249352.0
48973.0,124960.0,112250.0,249363.0
48992.0,124957.0,112238.0,249342.0
49014.0,124954.0,112235.0,249349.0
48996.0,124967.0,112179.0,249317.0
48993.0,124973.0,112232.0,249345.0
48996.0,124962.0,112226.0,249326.0
48997.0,124954.0,112224.0,249346.0
48983.0,124962.0,112216.0,249324.0
49000.0,124949.0,112235.0,249331.0
49004.0,124926.0,112244.0,249334.0
48999.0,124966.0,112219.0,249368.0
49000.0,124972.0,112231.0,249320.0
48985.0,124965.0,112232.0,249356.0
48993.0,124958.0,112212.0,249318.0
49007.0,124962.0,112224.0,249326.0
49013.0,124950.0,112229.0,249302.0
49004.0,124958.0,112219.0,249299.0
49001.0,124952.0,112232.0,249284.0
48993.0,124941.0,112212.0,249246.0
48997.0,124915.0,112194.0,249267.0
48977.0,124918.0,112190.0,249241.0
48978.0,124875.0,112188.0,249185.0
48980.0,124837.0,112180.0,249189.0
48955.0,124815.0,112188.0,249143.0
48955.0,124762.0,112171.0,249130.0
48947.0,124750.0,112168.0,249162.0
48942.0,124699.0,112178.0,249140.0
48931.0,124694.0,112185.0,249135.0
48924.0,124647.0,112161.0,249093.0
48925.0,124593.0,112163.0,249066.0
48911.0,124579.0,112156.0,249025.0
48914.0,124569.0,112150.0,249044.0
48899.0,124518.0,112146.0,249033.0
48882.0,124472.0,112153.0,249008.0
48877.0,124461.0,112151.0,249028.0
48876.0,124438.0,112134.0,248990.0
48877.0,124368.0,112152.0,248947.0
48861.0,124380.0,112156.0,248963.0
48850.0,124348.0,112141.0,248950.0
48848.0,124296.0,112109.0,248985.0
48841.0,124304.0,112112.0,248952.0
48849.0,124269.0,112120.0,248938.0
48836.0,124249.0,112111.0,248971.0
48843.0,124223.0,112114.0,248941.0
48818.0,124225.0,112114.0,248919.0
48808.0,124169.0,112125.0,248936.0
48815.0,124181.0,112107.0,248912.0
48815.0,124162.0,112110.0,248912.0
48812.0,124142.0,112115.0,248875.0
48806.0,124118.0,112112.0,248865.0
48798.0,124090.0,112091.0,248911.0
48791.0,124091.0,112073.0,248876.0
48785.0,124077.0,112063.0,248866.0
48796.0,124053.0,112076.0,248864.0
48796.0,124019.0,112061.0,248828.0
48781.0,124020.0,112091.0,248840.0
48775.0,123987.0,112081.0,248827.0
48791.0,123996.0,112067.0,248830.0
48782.0,123983.0,112072.0,248835.0
48759.0,123957.0,112067.0,248768.0
48776.0,123935.0,112069.0,248778.0
48771.0,123917.0,112033.0,248752.0
48763.0,123905.0,112065.0,248759.0
48772.0,123884.0,112070.0,248762.0
48755.0,123890.0,112062.0,248777.0
48756.0,123902.0,112054.0,248770.0
48766.0,123859.0,112074.0,248788.0
48746.0,123847.0,112032.0,248804.0
48757.0,123848.0,112041.0,248791.0
48748.0,123866.0,112051.0,248752.0
48744.0,123835.0,112026.0,248763.0
48734.0,123846.0,112030.0,248724.0
48751.0,123822.0,112029.0,248732.0
48763.0,123812.0,112020.0,248728.0
48747.0,123812.0,112007.0,248732.0
48748.0,123812.0,112017.0,248723.0
48744.0,123800.0,112015.0,248682.0
48744.0,123804.0,112002.0,248699.0
48749.0,123804.0,111980.0,248674.0
48751.0,123800.0,112008.0,248653.0
48746.0,123797.0,111985.0,248683.0
48744.0,123810.0,111988.0,248680.0
48751.0,123802.0,111997.0,248686.0
48749.0,123803.0,112003.0,248662.0
48761.0,123799.0,112008.0,248655.0
48756.0,123788.0,111997.0,248657.0
48745.0,123797.0,112006.0,248648.0
48770.0,123778.0,111991.0,248676.0
48756.0,123759.0,112043.0,248720.0
48734.0,123774.0,112073.0,248685.0
48745.0,123721.0,112077.0,248715.0
48745.0,123707.0,112074.0,248729.0
48719.0,123677.0,112071.0,248694.0
48727.0,123668.0,112057.0,248638.0
48725.0,123638.0,112044.0,248638.0
48712.0,123610.0,112044.0,248622.0
48697.0,123557.0,112027.0,248607.0
48713.0,123518.0,112032.0,248575.0
48708.0,123516.0,112034.0,248559.0
48667.0,123494.0,111997.0,248514.0
48673.0,123450.0,111994.0,248526.0
48679.0,123439.0,111968.0,248463.0
48654.0,123382.0,111947.0,248407.0
48643.0,123365.0,111929.0,248389.0
48647.0,123321.0,111918.0,248354.0
48641.0,123294.0,111906.0,248308.0
48631.0,123267.0,111898.0,248312.0
48608.0,123254.0,111903.0,248284.0
48618.0,123248.0,111895.0,248301.0
48623.0,123212.0,111888.0,248291.0
48619.0,123206.0,111895.0,248249.0
48611.0,123193.0,111868.0,248252.0
48607.0,123181.0,111846.0,248244.0
48602.0,123149.0,111880.0,248230.0
48593.0,123135.0,111888.0,248252.0
48600.0,123131.0,111877.0,248243.0
48590.0,123112.0,111872.0,248270.0
48595.0,123079.0,111908.0,248277.0
48586.0,123091.0,111880.0,248270.0
48583.0,123090.0,111896.0,248253.0
48588.0,123054.0,111914.0,248255.0
48582.0,123074.0,111889.0,248302.0
48549.0,123015.0,111868.0,248255.0
48568.0,123036.0,111915.0,248255.0
48570.0,123041.0,111912.0,248253.0
48563.0,123036.0,111908.0,248273.0
48575.0,123007.0,111936.0,248267.0
48567.0,123030.0,111913.0,248285.0
48576.0,123017.0,111937.0,248270.0
48557.0,122996.0,111961.0,248323.0
48568.0,123021.0,111940.0,248313.0
48565.0,123004.0,111954.0,248294.0
48564.0,123009.0,111937.0,248317.0
48577.0,122996.0,111937.0,248328.0
48567.0,122990.0,111943.0,248295.0
48563.0,122998.0,111952.0,248279.0
48579.0,122994.0,111949.0,248285.0
48586.0,122999.0,111919.0,248264.0
48573.0,122971.0,111923.0,248273.0
48558.0,122972.0,111914.0,248249.0
48564.0,122963.0,111888.0,248193.0
48567.0,122958.0,111872.0,248184.0
48559.0,122934.0,111875.0,248166.0
48546.0,122933.0,111858.0,248154.0
48565.0,122928.0,111860.0,248146.0
48560.0,122893.0,111828.0,248112.0
48558.0,122873.0,111803.0,248128.0
48544.0,122891.0,111819.0,248091.0
48555.0,122871.0,111822.0,248079.0
48545.0,122858.0,111782.0,248043.0
48541.0,122839.0,111809.0,248042.0
48531.0,122832.0,111792.0,248018.0
48525.0,122808.0,111770.0,248004.0
48520.0,122789.0,111776.0,247975.0
48529.0,122740.0,111767.0,247970.0
48518.0,122743.0,111780.0,247895.0
48511.0,122722.0,111752.0,247915.0
48485.0,122640.0,111746.0,247892.0
48484.0,122593.0,111750.0,247883.0
48481.0,122600.0,111750.0,247886.0
48477.0,122547.0,111747.0,247841.0
48454.0,122516.0,111756.0,247841.0
48444.0,122505.0,111749.0,247851.0
48441.0,122463.0,111743.0,247818.0
48426.0,122439.0,111726.0,247821.0
48429.0,122415.0,111739.0,247833.0
48411.0,122385.0,111760.0,247809.0
48426.0,122356.0,111742.0,247822.0
48420.0,122315.0,111751.0,247780.0
48398.0,122307.0,111737.0,247801.0
48384.0,122267.0,111724.0,247783.0
48388.0,122255.0,111728.0,247802.0
48338.0,122226.0,111717.0,247779.0
48372.0,122201.0,111725.0,247760.0
48381.0,122179.0,111717.0,247795.0
48376.0,122158.0,111696.0,247745.0
48362.0,122168.0,111684.0,247725.0
48355.0,122140.0,111681.0,247698.0
48344.0,122109.0,111668.0,247662.0
48346.0,122087.0,111664.0,247680.0
48348.0,122095.0,111664.0,247654.0
48341.0,122068.0,111670.0,247643.0
48325.0,122035.0,111660.0,247642.0
48334.0,122016.0,111670.0,247634.0
48339.0,122005.0,111633.0,247637.0
48331.0,122004.0,111651.0,247616.0
48316.0,122003.0,111631.0,247603.0
48315.0,121980.0,111637.0,247594.0
48302.0,121998.0,111613.0,247589.0
48294.0,121913.0,111634.0,247559.0
48318.0,121943.0,111585.0,247532.0
48313.0,121943.0,111584.0,247498.0
48274.0,121938.0,111589.0,247522.0
48313.0,121918.0,111599.0,247492.0
48315.0,121918.0,111582.0,247502.0
48304.0,121893.0,111558.0,247503.0
48305.0,121897.0,111589.0,247489.0
48289.0,121884.0,111556.0,247499.0
48300.0,121886.0,111539.0,247477.0
48289.0,121884.0,111552.0,247519.0
48293.0,121861.0,111557.0,247464.0
48291.0,121864.0,111543.0,247470.0
48287.0,121846.0,111538.0,247432.0
48288.0,121858.0,111515.0,247426.0
48280.0,121843.0,111530.0,247424.0
48281.0,121839.0,111521.0,247459.0
48289.0,121857.0,111522.0,247439.0
48283.0,121848.0,111505.0,247446.0
48291.0,121843.0,111540.0,247425.0
48285.0,121847.0,111521.0,247385.0
48300.0,121845.0,111528.0,247434.0
48295.0,121828.0,111525.0,247404.0
48274.0,121846.0,111481.0,247419.0
48290.0,121843.0,111501.0,247389.0
48298.0,121856.0,111491.0,247387.0
48287.0,121836.0,111495.0,247387.0
48289.0,121835.0,111493.0,247375.0
48296.0,121847.0,111476.0,247368.0
48298.0,121881.0,111473.0,247357.0
48289.0,121856.0,111476.0,247369.0
48273.0,121862.0,111477.0,247360.0
48301.0,121870.0,111473.0,247352.0
48293.0,121843.0,111478.0,247357.0
48306.0,121862.0,111475.0,247321.0
48299.0,121869.0,111461.0,247313.0
48303.0,121875.0,111476.0,247315.0
48305.0,121829.0,111474.0,247330.0
48296.0,121839.0,111484.0,247283.0
48294.0,121824.0,111467.0,247252.0
48281.0,121802.0,111472.0,247229.0
48274.0,121771.0,111455.0,247205.0
48259.0,121734.0,111446.0,247186.0
48259.0,121709.0,111450.0,247195.0
48241.0,121671.0,111437.0,247169.0
48244.0,121635.0,111443.0,247194.0
48227.0,121608.0,111444.0,247143.0
48218.0,121584.0,111419.0,247086.0
48204.0,121559.0,111435.0,247114.0
48205.0,121523.0,111445.0,247080.0
48209.0,121521.0,111438.0,247110.0
48180.0,121481.0,111463.0,247106.0
48183.0,121464.0,111448.0,247060.0
48180.0,121415.0,111421.0,247076.0
48164.0,121407.0,111437.0,247101.0
48168.0,121391.0,111430.0,247038.0
48165.0,121341.0,111421.0,246994.0
48140.0,121323.0,111433.0,247026.0
48154.0,121317.0,111439.0,247022.0
48135.0,121304.0,111431.0,246992.0
48139.0,121298.0,111425.0,247006.0
48137.0,121285.0,111405.0,246989.0
48127.0,121263.0,111406.0,246967.0
48115.0,121254.0,111404.0,246944.0
48130.0,121239.0,111411.0,246978.0
48131.0,121210.0,111430.0,246970.0
48118.0,121223.0,111415.0,246932.0
48122.0,121231.0,111403.0,246955.0
48094.0,121224.0,111406.0,246952.0
48114.0,121176.0,111398.0,246907.0
48110.0,121205.0,111409.0,246890.0
48103.0,121157.0,111383.0,246921.0
48101.0,121152.0,111374.0,246873.0
48104.0,121153.0,111397.0,246899.0
48099.0,121150.0,111392.0,246845.0
48106.0,121142.0,111385.0,246853.0
48099.0,121153.0,111364.0,246860.0
48101.0,121120.0,111374.0,246843.0
48092.0,121107.0,111336.0,246824.0
48089.0,121127.0,111344.0,246818.0
48090.0,121112.0,111332.0,246774.0
48095.0,121114.0,111330.0,246793.0
48093.0,121118.0,111288.0,246804.0
48091.0,121104.0,111309.0,246753.0
48069.0,121096.0,111329.0,246753.0
48060.0,121081.0,111300.0,246763.0
48099.0,121085.0,111318.0,246824.0
48103.0,121105.0,111349.0,246803.0
48083.0,121096.0,111333.0,246812.0
48092.0,121086.0,111317.0,246764.0
48092.0,121105.0,111308.0,246775.0
48094.0,121104.0,111328.0,246786.0
48087.0,121084.0,111317.0,246769.0
48090.0,121122.0,111319.0,246769.0
48089.0,121097.0,111296.0,246764.0
48089.0,121109.0,111322.0,246717.0
48090.0,121131.0,111293.0,246721.0
48105.0,121115.0,111303.0,246728.0
48109.0,121122.0,111286.0,246716.0
48112.0,121114.0,111300.0,246727.0
48112.0,121139.0,111279.0,246701.0
48104.0,121141.0,111285.0,246742.0
48085.0,121156.0,111312.0,246703.0
48109.0,121137.0,111306.0,246735.0
48118.0,121151.0,111304.0,246742.0
48114.0,121156.0,111287.0,246699.0
48125.0,121162.0,111300.0,246722.0
48116.0,121185.0,111296.0,246725.0
48127.0,121193.0,111284.0,246688.0
48117.0,121202.0,111285.0,246721.0
48134.0,121198.0,111283.0,246721.0
48125.0,121210.0,111276.0,246691.0
48115.0,121211.0,111262.0,246670.0
48142.0,121222.0,111266.0,246698.0
48138.0,121227.0,111263.0,246712.0
48136.0,121242.0,111270.0,246708.0
48161.0,121253.0,111257.0,246687.0
48153.0,121272.0,111257.0,246682.0
48146.0,121258.0,111264.0,246667.0
48168.0,121276.0,111240.0,246631.0
48156.0,121265.0,111233.0,246611.0
48136.0,121255.0,111243.0,246611.0
48150.0,121214.0,111244.0,246596.0
48134.0,121213.0,111249.0,246571.0
48137.0,121205.0,111232.0,246556.0
48112.0,121159.0,111256.0,246562.0
48121.0,121110.0,111242.0,246513.0
48100.0,121123.0,111262.0,246487.0
48095.0,121101.0,111230.0,246484.0
48100.0,121072.0,111228.0,246466.0
48108.0,121048.0,111209.0,246421.0
48081.0,121017.0,111209.0,246462.0
48095.0,120999.0,111222.0,246439.0
48067.0,120988.0,111241.0,246428.0
48054.0,120966.0,111224.0,246421.0
48056.0,120961.0,111214.0,246394.0
48055.0,120906.0,111207.0,246386.0
48058.0,120933.0,111206.0,246391.0
48072.0,120916.0,111225.0,246400.0
48056.0,120915.0,111209.0,246391.0
48049.0,120895.0,111214.0,246380.0
48051.0,120887.0,111215.0,246390.0
48038.0,120889.0,111202.0,246368.0
48043.0,120883.0,111195.0,246362.0
48039.0,120874.0,111220.0,246344.0
48038.0,120878.0,111200.0,246335.0
48040.0,120873.0,111211.0,246356.0
48026.0,120866.0,111180.0,246351.0
48040.0,120861.0,111181.0,246314.0
48031.0,120862.0,111200.0,246313.0
48035.0,120862.0,111204.0,246327.0
48029.0,120868.0,111197.0,246326.0
48023.0,120849.0,111196.0,246327.0
48028.0,120835.0,111194.0,246305.0
48037.0,120866.0,111189.0,246299.0
48039.0,120848.0,111173.0,246275.0
48034.0,120821.0,111168.0,246286.0
48033.0,120847.0,111171.0,246266.0
48037.0,120848.0,111177.0,246250.0
48027.0,120864.0,111179.0,246254.0
48011.0,120837.0,111179.0,246252.0
48024.0,120846.0,111158.0,246228.0
48029.0,120828.0,111171.0,246243.0
48032.0,120871.0,111163.0,246260.0
48056.0,120848.0,111157.0,246236.0
48040.0,120874.0,111169.0,246216.0
48025.0,120871.0,111149.0,246249.0
48048.0,120862.0,111149.0,246223.0
48058.0,120863.0,111152.0,246235.0
48032.0,120899.0,111149.0,246206.0
48023.0,120887.0,111135.0,246225.0
48049.0,120887.0,111139.0,246215.0
48033.0,120906.0,111146.0,246282.0
48051.0,120919.0,111152.0,246273.0
48051.0,120934.0,111165.0,246206.0
48061.0,120939.0,111148.0,246216.0
48050.0,120961.0,111151.0,246189.0
48061.0,120955.0,111137.0,246207.0
48065.0,120955.0,111145.0,246167.0
48073.0,120968.0,111135.0,246218.0
48061.0,120985.0,111107.0,246169.0
48076.0,120980.0,111124.0,246207.0
48067.0,120997.0,111131.0,246224.0
48074.0,121005.0,111145.0,246181.0
48081.0,121036.0,111175.0,246184.0
48081.0,121044.0,111151.0,246218.0
48095.0,121057.0,111151.0,246226.0
48114.0,121055.0,111129.0,246186.0
48097.0,121066.0,111151.0,246214.0
48100.0,121088.0,111160.0,246228.0
48105.0,121134.0,111133.0,246202.0
48114.0,121122.0,111152.0,246206.0
48116.0,121112.0,111144.0,246203.0
48115.0,121124.0,111150.0,246204.0
48112.0,121181.0,111147.0,246218.0
