54561.0,144307.0,117398.0,255568.0
54571.0,144321.0,117414.0,255547.0
54580.0,144361.0,117393.0,255582.0
54569.0,144406.0,117429.0,255594.0
54597.0,144428.0,117442.0,255680.0
54603.0,144478.0,117465.0,255690.0
54609.0,144483.0,117475.0,255709.0
54596.0,144487.0,117498.0,255715.0
54606.0,144512.0,117485.0,255716.0
54620.0,144538.0,117483.0,255734.0
54617.0,144569.0,117511.0,255753.0
54624.0,144589.0,117533.0,255775.0
54591.0,144585.0,117490.0,255766.0
54636.0,144622.0,117538.0,255773.0
54632.0,144625.0,117538.0,255816.0
54638.0,144649.0,117525.0,255843.0
54646.0,144665.0,117545.0,255842.0
54656.0,144707.0,117570.0,255871.0
54653.0,144749.0,117584.0,255853.0
54658.0,144794.0,117591.0,255917.0
54680.0,144813.0,117614.0,255928.0
54683.0,144844.0,117618.0,255922.0
54689.0,144859.0,117619.0,255966.0
54709.0,144880.0,117625.0,255985.0
54688.0,144920.0,117642.0,255981.0
54698.0,144916.0,117649.0,255978.0
54719.0,144940.0,117640.0,255992.0
54696.0,144943.0,117607.0,255980.0
54717.0,144926.0,117641.0,255935.0
54703.0,144904.0,117659.0,255917.0
54714.0,144888.0,117628.0,255897.0
54710.0,144895.0,117620.0,255957.0
54698.0,144880.0,117621.0,255917.0
54697.0,144877.0,117621.0,255886.0
54700.0,144830.0,117616.0,255826.0
54687.0,144800.0,117562.0,255827.0
54668.0,144779.0,117531.0,255799.0
54670.0,144762.0,117533.0,255720.0
54657.0,144731.0,117501.0,255710.0
54641.0,144706.0,117489.0,255654.0
54630.0,144688.0,117450.0,255596.0
54627.0,144659.0,117440.0,255570.0
54612.0,144635.0,117404.0,255516.0
54598.0,144595.0,117385.0,255454.0
54595.0,144602.0,117359.0,255422.0
54585.0,144559.0,117339.0,255356.0
54564.0,144539.0,117293.0,255343.0
54566.0,144511.0,117292.0,255340.0
54566.0,144511.0,117282.0,255297.0
54565.0,144490.0,117242.0,255293.0
54556.0,144484.0,117234.0,255257.0
54554.0,144487.0,117212.0,255229.0
54539.0,144467.0,117220.0,255181.0
54536.0,144464.0,117198.0,255186.0
54520.0,144454.0,117200.0,255188.0
54527.0,144452.0,117199.0,255184.0
54518.0,144461.0,117170.0,255181.0
54528.0,144430.0,117178.0,255141.0
54529.0,144426.0,117167.0,255156.0
54513.0,144413.0,117182.0,255146.0
54511.0,144406.0,117178.0,255116.0
54505.0,144394.0,117180.0,255140.0
54505.0,144378.0,117189.0,255163.0
54517.0,144369.0,117199.0,255181.0
54490.0,144335.0,117198.0,255172.0
54490.0,144321.0,117216.0,255158.0
54488.0,144352.0,117207.0,255176.0
54476.0,144351.0,117209.0,255228.0
54486.0,144305.0,117212.0,255248.0
54474.0,144320.0,117214.0,255249.0
54481.0,144337.0,117219.0,255225.0
54476.0,144306.0,117233.0,255212.0
54444.0,144311.0,117216.0,255227.0
54454.0,144265.0,117201.0,255196.0
54452.0,144264.0,117224.0,255252.0
54455.0,144278.0,117224.0,255211.0
54455.0,144272.0,117222.0,255283.0
54458.0,144267.0,117225.0,255230.0
54441.0,144248.0,117216.0,255253.0
54439.0,144281.0,117212.0,255229.0
54439.0,144265.0,117225.0,255246.0
54458.0,144260.0,117209.0,255234.0
54445.0,144281.0,117226.0,255257.0
54449.0,144259.0,117214.0,255257.0
54449.0,144282.0,117237.0,255237.0
54447.0,144260.0,117230.0,255298.0
54445.0,144271.0,117236.0,255313.0
54445.0,144272.0,117237.0,255298.0
54438.0,144274.0,117230.0,255293.0
54438.0,144255.0,117219.0,255323.0
54443.0,144263.0,117235.0,255350.0
54451.0,144290.0,117238.0,255361.0
54442.0,144275.0,117267.0,255389.0
54454.0,144277.0,117271.0,255378.0
54451.0,144241.0,117256.0,255366.0
54437.0,144221.0,117267.0,255367.0
54434.0,144193.0,117265.0,255341.0
54444.0,144144.0,117228.0,255311.0
54409.0,144121.0,117259.0,255334.0
54386.0,144053.0,117255.0,255296.0
54383.0,144001.0,117257.0,255362.0
54371.0,143944.0,117275.0,255360.0
54344.0,143910.0,117278.0,255360.0
54334.0,143867.0,117286.0,255380.0
54333.0,143836.0,117310.0,255394.0
54311.0,143766.0,117298.0,255405.0
54295.0,143739.0,117323.0,255404.0
54288.0,143706.0,117318.0,255431.0
54282.0,143642.0,117340.0,255411.0
54263.0,143614.0,117345.0,255426.0
54259.0,143594.0,117351.0,255465.0
54242.0,143544.0,117385.0,255493.0
54235.0,143520.0,117400.0,255449.0
54225.0,143487.0,117379.0,255518.0
54226.0,143434.0,117397.0,255513.0
54195.0,143406.0,117364.0,255476.0
54196.0,143369.0,117366.0,255465.0
54185.0,143338.0,117353.0,255444.0
54176.0,143316.0,117320.0,255409.0
54171.0,143278.0,117323.0,255374.0
54163.0,143236.0,117304.0,255367.0
54151.0,143215.0,117279.0,255354.0
54129.0,143178.0,117285.0,255330.0
54126.0,143140.0,117283.0,255353.0
54126.0,143102.0,117284.0,255288.0
54110.0,143070.0,117246.0,255255.0
54107.0,143075.0,117249.0,255282.0
54099.0,143048.0,117253.0,255295.0
54091.0,143018.0,117266.0,255288.0
54092.0,143028.0,117271.0,255255.0
54083.0,143018.0,117250.0,255270.0
54091.0,142955.0,117247.0,255305.0
54067.0,142926.0,117259.0,255281.0
54058.0,142944.0,117243.0,255302.0
54062.0,142909.0,117239.0,255293.0
54043.0,142889.0,117243.0,255257.0
54038.0,142878.0,117236.0,255272.0
54044.0,142882.0,117261.0,255304.0
54043.0,142874.0,117270.0,255300.0
54047.0,142863.0,117248.0,255283.0
54046.0,142862.0,117252.0,255305.0
54038.0,142876.0,117246.0,255294.0
54034.0,142861.0,117250.0,255280.0
54031.0,142853.0,117231.0,255293.0
54024.0,142840.0,117250.0,255235.0
54020.0,142825.0,117223.0,255255.0
54021.0,142798.0,117224.0,255241.0
54019.0,142794.0,117215.0,255253.0
54023.0,142795.0,117227.0,255202.0
54010.0,142787.0,117215.0,255295.0
54008.0,142801.0,117236.0,255240.0
54009.0,142791.0,117214.0,255217.0
54021.0,142775.0,117215.0,255232.0
54015.0,142812.0,117232.0,255229.0
53995.0,142793.0,117208.0,255256.0
54005.0,142808.0,117234.0,255221.0
54009.0,142808.0,117224.0,255250.0
54004.0,142770.0,117229.0,255242.0
53999.0,142734.0,117204.0,255206.0
53980.0,142696.0,117197.0,255171.0
53966.0,142654.0,117187.0,255138.0
53965.0,142567.0,117186.0,255133.0
53933.0,142515.0,117163.0,255088.0
53911.0,142456.0,117160.0,255103.0
53889.0,142393.0,117181.0,255061.0
53828.0,142326.0,117126.0,255053.0
53848.0,142284.0,117151.0,255068.0
53846.0,142241.0,117153.0,255047.0
53830.0,142179.0,117153.0,255025.0
53823.0,142151.0,117160.0,255044.0
53800.0,142077.0,117133.0,255001.0
53777.0,141997.0,117147.0,254982.0
53765.0,141952.0,117123.0,254998.0
53746.0,141898.0,117103.0,255008.0
53739.0,141898.0,117107.0,254947.0
53724.0,141841.0,117117.0,255021.0
53712.0,141806.0,117136.0,255011.0
53698.0,141794.0,117159.0,254998.0
53703.0,141761.0,117156.0,255061.0
53693.0,141758.0,117176.0,255043.0
53688.0,141742.0,117174.0,255033.0
53687.0,141712.0,117162.0,255060.0
53657.0,141677.0,117152.0,255060.0
53649.0,141649.0,117131.0,254982.0
53644.0,141623.0,117137.0,255018.0
53635.0,141589.0,117118.0,254968.0
53606.0,141545.0,117138.0,254994.0
53609.0,141501.0,117155.0,254984.0
53607.0,141511.0,117141.0,255004.0
53577.0,141490.0,117122.0,255006.0
53580.0,141420.0,117146.0,254954.0
53585.0,141440.0,117124.0,254991.0
53568.0,141390.0,117132.0,254972.0
53578.0,141386.0,117132.0,254985.0
53561.0,141384.0,117150.0,255010.0
53557.0,141365.0,117155.0,255025.0
53543.0,141358.0,117138.0,255006.0
53567.0,141356.0,117152.0,254967.0
53556.0,141342.0,117154.0,255013.0
53542.0,141339.0,117133.0,254995.0
53533.0,141344.0,117150.0,255007.0
53534.0,141328.0,117150.0,254998.0
53540.0,141340.0,117137.0,255016.0
53533.0,141341.0,117143.0,254984.0
53533.0,141342.0,117133.0,254966.0
53540.0,141339.0,117118.0,254989.0
53525.0,141328.0,117115.0,254969.0
53524.0,141310.0,117075.0,254950.0
53526.0,141307.0,117057.0,254940.0
53521.0,141317.0,117054.0,254855.0
53517.0,141312.0,117020.0,254880.0
53536.0,141319.0,117014.0,254852.0
53522.0,141313.0,117033.0,254842.0
53532.0,141306.0,117028.0,254880.0
53519.0,141321.0,117015.0,254852.0
53533.0,141318.0,117005.0,254857.0
53526.0,141340.0,116998.0,254798.0
53542.0,141322.0,117004.0,254827.0
53534.0,141330.0,116997.0,254840.0
53550.0,141346.0,117016.0,254876.0
53532.0,141333.0,117024.0,254838.0
53525.0,141301.0,117041.0,254857.0
53524.0,141272.0,117018.0,254834.0
53497.0,141208.0,117021.0,254835.0
53486.0,141168.0,117030.0,254807.0
53456.0,141117.0,117024.0,254813.0
53445.0,141068.0,117019.0,254789.0
53429.0,141007.0,117022.0,254840.0
53419.0,140939.0,117016.0,254783.0
53406.0,140868.0,117017.0,254726.0
53371.0,140793.0,116981.0,254792.0
53358.0,140749.0,116993.0,254757.0
53323.0,140684.0,116984.0,254762.0
53331.0,140659.0,116995.0,254726.0
53300.0,140608.0,116999.0,254722.0
53303.0,140558.0,116986.0,254681.0
53270.0,140491.0,116989.0,254707.0
53262.0,140467.0,116964.0,254648.0
53259.0,140407.0,116956.0,254665.0
53238.0,140368.0,116947.0,254605.0
53230.0,140305.0,116961.0,254614.0
53208.0,140276.0,116955.0,254607.0
53194.0,140235.0,116924.0,254586.0
53191.0,140196.0,116906.0,254555.0
53186.0,140166.0,116902.0,254537.0
53170.0,140136.0,116891.0,254535.0
53165.0,140130.0,116889.0,254549.0
53165.0,140107.0,116895.0,254496.0
53162.0,140085.0,116878.0,254535.0
53183.0,140111.0,116907.0,254529.0
53146.0,140073.0,116904.0,254541.0
53140.0,140069.0,116891.0,254540.0
53137.0,140051.0,116906.0,254523.0
53125.0,140019.0,116888.0,254523.0
53128.0,139990.0,116898.0,254496.0
53113.0,139984.0,116886.0,254571.0
53119.0,139986.0,116907.0,254554.0
53117.0,139986.0,116889.0,254555.0
53107.0,139947.0,116899.0,254514.0
53095.0,139976.0,116875.0,254529.0
53092.0,139944.0,116879.0,254516.0
53097.0,139937.0,116887.0,254537.0
53109.0,139962.0,116902.0,254579.0
53095.0,139960.0,116907.0,254576.0
53102.0,139945.0,116912.0,254582.0
53106.0,139966.0,116899.0,254567.0
53081.0,139933.0,116884.0,254585.0
53096.0,139945.0,116915.0,254545.0
53091.0,139932.0,116911.0,254568.0
53093.0,139909.0,116918.0,254637.0
53092.0,139953.0,116934.0,254624.0
53086.0,139938.0,116927.0,254595.0
53082.0,139939.0,116945.0,254635.0
53090.0,139962.0,116945.0,254663.0
53098.0,139988.0,116937.0,254651.0
53086.0,139990.0,116948.0,254668.0
53112.0,140016.0,116977.0,254704.0
53108.0,140016.0,116973.0,254689.0
53104.0,140039.0,116982.0,254720.0
53108.0,140043.0,116983.0,254668.0
53112.0,140057.0,116974.0,254756.0
53110.0,140074.0,117003.0,254723.0
53112.0,140083.0,116979.0,254733.0
53115.0,140066.0,116958.0,254697.0
53121.0,140109.0,116983.0,254709.0
53131.0,140082.0,116974.0,254725.0
53123.0,140131.0,116975.0,254710.0
53115.0,140120.0,116985.0,254713.0
53122.0,140134.0,116979.0,254707.0
53133.0,140119.0,116982.0,254708.0
53122.0,140098.0,116997.0,254676.0
53112.0,140070.0,116982.0,254695.0
53118.0,140064.0,116985.0,254647.0
53090.0,140006.0,116969.0,254668.0
53076.0,139942.0,116965.0,254643.0
53062.0,139926.0,116969.0,254627.0
53053.0,139861.0,116972.0,254607.0
53033.0,139827.0,116978.0,254631.0
53024.0,139748.0,116971.0,254628.0
53010.0,139708.0,116974.0,254679.0
52989.0,139652.0,116952.0,254607.0
52976.0,139607.0,117001.0,254653.0
52958.0,139592.0,116997.0,254653.0
52957.0,139521.0,116993.0,254648.0
52954.0,139500.0,116980.0,254693.0
52933.0,139462.0,116997.0,254627.0
52915.0,139434.0,117003.0,254619.0
52907.0,139392.0,116983.0,254594.0
52900.0,139364.0,116945.0,254591.0
52894.0,139342.0,116980.0,254598.0
52890.0,139329.0,116976.0,254556.0
52890.0,139337.0,116939.0,254550.0
52870.0,139310.0,116937.0,254554.0
52888.0,139302.0,116956.0,254537.0
52879.0,139321.0,116958.0,254563.0
52874.0,139308.0,116955.0,254546.0
52873.0,139302.0,116952.0,254539.0
52855.0,139310.0,116913.0,254535.0
52866.0,139271.0,116915.0,254499.0
52880.0,139285.0,116917.0,254503.0
52869.0,139287.0,116893.0,254462.0
52864.0,139316.0,116888.0,254472.0
52858.0,139307.0,116908.0,254497.0
52858.0,139300.0,116897.0,254480.0
52872.0,139314.0,116897.0,254434.0
52850.0,139321.0,116903.0,254484.0
52848.0,139323.0,116883.0,254447.0
52853.0,139335.0,116872.0,254409.0
52862.0,139337.0,116859.0,254396.0
52865.0,139339.0,116865.0,254412.0
52870.0,139359.0,116844.0,254411.0
52872.0,139368.0,116858.0,254396.0
52877.0,139377.0,116856.0,254371.0
52873.0,139398.0,116860.0,254325.0
52855.0,139395.0,116837.0,254371.0
52872.0,139390.0,116794.0,254347.0
52879.0,139398.0,116792.0,254319.0
52875.0,139388.0,116793.0,254324.0
52866.0,139382.0,116795.0,254322.0
52883.0,139414.0,116789.0,254329.0
52882.0,139413.0,116789.0,254307.0
52885.0,139455.0,116772.0,254288.0
52881.0,139451.0,116769.0,254297.0
52879.0,139494.0,116778.0,254309.0
52877.0,139519.0,116765.0,254316.0
52900.0,139526.0,116798.0,254305.0
52915.0,139541.0,116785.0,254270.0
52906.0,139571.0,116776.0,254302.0
52908.0,139578.0,116768.0,254305.0
52920.0,139627.0,116759.0,254309.0
52940.0,139636.0,116767.0,254262.0
52926.0,139686.0,116726.0,254231.0
52930.0,139713.0,116735.0,254244.0
52941.0,139728.0,116713.0,254228.0
52941.0,139718.0,116711.0,254214.0
52961.0,139761.0,116717.0,254190.0
52977.0,139783.0,116721.0,254194.0
52983.0,139827.0,116724.0,254205.0
52985.0,139831.0,116708.0,254235.0
52990.0,139875.0,116711.0,254223.0
53001.0,139872.0,116726.0,254218.0
52993.0,139930.0,116692.0,254198.0
52996.0,139935.0,116696.0,254220.0
53010.0,139943.0,116696.0,254209.0
52995.0,139981.0,116703.0,254229.0
53008.0,139975.0,116675.0,254166.0
53020.0,139982.0,116667.0,254211.0
53006.0,140020.0,116663.0,254189.0
53030.0,140054.0,116636.0,254163.0
53039.0,140058.0,116657.0,254201.0
53052.0,140095.0,116653.0,254201.0
53035.0,140085.0,116656.0,254177.0
53031.0,140108.0,116663.0,254160.0
53033.0,140110.0,116656.0,254148.0
53039.0,140089.0,116631.0,254140.0
53025.0,140074.0,116639.0,254103.0
53023.0,140064.0,116631.0,254103.0
53019.0,139993.0,116615.0,254038.0
52985.0,139941.0,116609.0,254037.0
52986.0,139922.0,116603.0,254027.0
52979.0,139889.0,116609.0,254069.0
52964.0,139823.0,116590.0,254022.0
52952.0,139783.0,116581.0,254012.0
52930.0,139737.0,116584.0,253986.0
52914.0,139697.0,116593.0,253988.0
52932.0,139686.0,116572.0,253998.0
52918.0,139642.0,116581.0,253993.0
52892.0,139600.0,116588.0,253938.0
52868.0,139559.0,116590.0,253993.0
52848.0,139520.0,116590.0,254008.0
52849.0,139481.0,116604.0,253977.0
52819.0,139427.0,116553.0,253973.0
52812.0,139372.0,116567.0,253976.0
52804.0,139354.0,116543.0,253945.0
52790.0,139322.0,116540.0,253961.0
52781.0,139262.0,116561.0,253907.0
52765.0,139264.0,116561.0,253896.0
52776.0,139252.0,116537.0,253919.0
52772.0,139230.0,116541.0,253906.0
52769.0,139220.0,116542.0,253880.0
52770.0,139210.0,116539.0,253888.0
52759.0,139191.0,116546.0,253885.0
52752.0,139167.0,116528.0,253914.0
52752.0,139150.0,116524.0,253866.0
52739.0,139134.0,116545.0,253875.0
52723.0,139099.0,116546.0,253912.0
52734.0,139110.0,116507.0,253874.0
52720.0,139062.0,116493.0,253855.0
52703.0,139023.0,116513.0,253826.0
52708.0,139026.0,116499.0,253829.0
52683.0,139014.0,116471.0,253821.0
52677.0,138970.0,116467.0,253810.0
52683.0,138944.0,116450.0,253746.0
52668.0,138917.0,116426.0,253751.0
52643.0,138874.0,116425.0,253719.0
52657.0,138828.0,116403.0,253697.0
52644.0,138792.0,116373.0,253603.0
52615.0,138740.0,116343.0,253569.0
52597.0,138710.0,116323.0,253547.0
52609.0,138636.0,116287.0,253512.0
52596.0,138629.0,116277.0,253467.0
52567.0,138595.0,116268.0,253490.0
52591.0,138549.0,116257.0,253450.0
52552.0,138532.0,116219.0,253387.0
52540.0,138505.0,116217.0,253437.0
52541.0,138464.0,116221.0,253391.0
52546.0,138476.0,116192.0,253361.0
52524.0,138431.0,116176.0,253374.0
52520.0,138422.0,116164.0,253331.0
52534.0,138395.0,116151.0,253340.0
52517.0,138391.0,116165.0,253297.0
52514.0,138369.0,116144.0,253308.0
52520.0,138381.0,116131.0,253304.0
52513.0,138363.0,116137.0,253304.0
52524.0,138365.0,116148.0,253335.0
52524.0,138429.0,116163.0,253346.0
52538.0,138422.0,116155.0,253365.0
52528.0,138426.0,116162.0,253331.0
52545.0,138452.0,116158.0,253375.0
52548.0,138492.0,116185.0,253359.0
52558.0,138495.0,116154.0,253371.0
52560.0,138532.0,116159.0,253417.0
52559.0,138544.0,116174.0,253436.0
52577.0,138567.0,116210.0,253447.0
52582.0,138598.0,116210.0,253456.0
52588.0,138645.0,116237.0,253497.0
52601.0,138667.0,116236.0,253500.0
52605.0,138703.0,116215.0,253542.0
52620.0,138735.0,116252.0,253523.0
52623.0,138752.0,116228.0,253584.0
52633.0,138795.0,116247.0,253551.0
52652.0,138858.0,116234.0,253531.0
52677.0,138859.0,116220.0,253529.0
52682.0,138878.0,116246.0,253579.0
52668.0,138931.0,116230.0,253549.0
52678.0,138951.0,116248.0,253582.0
52697.0,138989.0,116249.0,253609.0
52705.0,139036.0,116249.0,253610.0
52716.0,139064.0,116290.0,253630.0
52710.0,139098.0,116262.0,253654.0
52727.0,139101.0,116274.0,253620.0
52729.0,139107.0,116273.0,253619.0
52726.0,139095.0,116263.0,253619.0
52732.0,139106.0,116266.0,253595.0
52716.0,139089.0,116245.0,253609.0
52715.0,139061.0,116255.0,253574.0
52719.0,139060.0,116258.0,253574.0
52714.0,139058.0,116236.0,253576.0
52701.0,139030.0,116258.0,253565.0
52705.0,138999.0,116246.0,253546.0
52690.0,138976.0,116251.0,253557.0
52680.0,138960.0,116261.0,253559.0
52688.0,138960.0,116242.0,253575.0
52677.0,138947.0,116240.0,253545.0
52668.0,138929.0,116235.0,253549.0
52668.0,138939.0,116276.0,253536.0
52674.0,138925.0,116272.0,253547.0
52648.0,138900.0,116254.0,253572.0
52668.0,138884.0,116258.0,253543.0
52648.0,138873.0,116244.0,253528.0
52644.0,138857.0,116251.0,253537.0
52627.0,138869.0,116228.0,253535.0
52640.0,138844.0,116242.0,253519.0
52647.0,138835.0,116234.0,253514.0
52641.0,138843.0,116211.0,253482.0
52639.0,138841.0,116211.0,253486.0
52648.0,138834.0,116196.0,253456.0
52643.0,138829.0,116192.0,253482.0
52650.0,138822.0,116205.0,253470.0
52636.0,138855.0,116185.0,253480.0
52652.0,138829.0,116190.0,253474.0
52654.0,138837.0,116206.0,253471.0
52642.0,138824.0,116194.0,253466.0
52640.0,138832.0,116204.0,253451.0
52651.0,138858.0,116190.0,253496.0
52658.0,138863.0,116218.0,253470.0
52665.0,138878.0,116225.0,253474.0
52657.0,138890.0,116194.0,253458.0
52657.0,138894.0,116209.0,253500.0
52669.0,138911.0,116218.0,253490.0
52670.0,138934.0,116245.0,253521.0
52679.0,138974.0,116232.0,253528.0
52691.0,138980.0,116243.0,253525.0
52684.0,139011.0,116211.0,253563.0
