58809.0,160561.0,123717.0,265251.0
58838.0,160632.0,123746.0,265273.0
58858.0,160716.0,123766.0,265342.0
58898.0,160790.0,123792.0,265372.0
58902.0,160874.0,123769.0,265351.0
58932.0,160904.0,123811.0,265349.0
58944.0,160988.0,123798.0,265365.0
58985.0,161046.0,123812.0,265329.0
58999.0,161100.0,123794.0,265306.0
59004.0,161151.0,123800.0,265346.0
59027.0,161193.0,123779.0,265311.0
59063.0,161209.0,123797.0,265296.0
59068.0,161266.0,123793.0,265320.0
59071.0,161317.0,123785.0,265317.0
59090.0,161333.0,123801.0,265268.0
59096.0,161383.0,123783.0,265239.0
59121.0,161445.0,123791.0,265258.0
59129.0,161480.0,123796.0,265240.0
59147.0,161536.0,123794.0,265287.0
59151.0,161577.0,123794.0,265289.0
59150.0,161621.0,123792.0,265252.0
59168.0,161648.0,123822.0,265258.0
59195.0,161658.0,123797.0,265250.0
59175.0,161693.0,123789.0,265295.0
59191.0,161679.0,123810.0,265243.0
59177.0,161693.0,123788.0,265239.0
59192.0,161694.0,123767.0,265222.0
59193.0,161706.0,123763.0,265211.0
59193.0,161731.0,123759.0,265242.0
59217.0,161779.0,123767.0,265251.0
59207.0,161805.0,123793.0,265259.0
59207.0,161852.0,123819.0,265257.0
59229.0,161862.0,123793.0,265306.0
59221.0,161905.0,123794.0,265293.0
59229.0,161907.0,123809.0,265275.0
59236.0,161900.0,123801.0,265259.0
59239.0,161964.0,123791.0,265289.0
59253.0,162005.0,123805.0,265293.0
59260.0,162010.0,123795.0,265298.0
59266.0,162059.0,123812.0,265260.0
59277.0,162085.0,123774.0,265286.0
59283.0,162103.0,123791.0,265272.0
59286.0,162116.0,123775.0,265293.0
59300.0,162125.0,123772.0,265265.0
59283.0,162176.0,123792.0,265295.0
59302.0,162163.0,123778.0,265243.0
59286.0,162180.0,123772.0,265267.0
59284.0,162176.0,123791.0,265331.0
59306.0,162171.0,123805.0,265381.0
59292.0,162183.0,123830.0,265378.0
59288.0,162171.0,123823.0,265370.0
59275.0,162140.0,123831.0,265400.0
59251.0,162118.0,123832.0,265437.0
59248.0,162086.0,123851.0,265429.0
59257.0,162082.0,123837.0,265426.0
59227.0,162067.0,123824.0,265417.0
59239.0,162034.0,123832.0,265445.0
59226.0,162023.0,123821.0,265482.0
59255.0,162020.0,123843.0,265454.0
59223.0,162010.0,123859.0,265471.0
59210.0,162027.0,123847.0,265484.0
59217.0,162023.0,123825.0,265517.0
59217.0,162034.0,123841.0,265500.0
59227.0,162044.0,123842.0,265486.0
59217.0,162051.0,123807.0,265471.0
59220.0,162024.0,123782.0,265437.0
59221.0,162026.0,123810.0,265485.0
59222.0,162023.0,123830.0,265459.0
59213.0,162026.0,123801.0,265452.0
59221.0,162041.0,123778.0,265455.0
59205.0,162030.0,123794.0,265401.0
59207.0,162026.0,123772.0,265426.0
59210.0,161999.0,123771.0,265385.0
59189.0,162035.0,123744.0,265422.0
59199.0,161991.0,123738.0,265384.0
59188.0,162007.0,123727.0,265364.0
59210.0,162003.0,123739.0,265407.0
59189.0,162003.0,123729.0,265358.0
59207.0,162016.0,123735.0,265389.0
59223.0,162042.0,123736.0,265404.0
59230.0,162049.0,123755.0,265428.0
59222.0,162108.0,123719.0,265430.0
59231.0,162104.0,123743.0,265400.0
59251.0,162128.0,123753.0,265412.0
59251.0,162136.0,123756.0,265397.0
59249.0,162135.0,123733.0,265372.0
59246.0,162117.0,123722.0,265352.0
59259.0,162090.0,123706.0,265342.0
59247.0,162088.0,123701.0,265343.0
59253.0,162085.0,123705.0,265332.0
59256.0,162089.0,123710.0,265338.0
59266.0,162044.0,123693.0,265308.0
59257.0,162060.0,123693.0,265311.0
59262.0,162061.0,123708.0,265293.0
59265.0,162061.0,123703.0,265269.0
59249.0,162054.0,123668.0,265255.0
59250.0,162013.0,123664.0,265247.0
59252.0,162015.0,123646.0,265254.0
59257.0,162037.0,123670.0,265199.0
59245.0,162033.0,123638.0,265239.0
59257.0,162002.0,123655.0,265235.0
59261.0,162013.0,123655.0,265244.0
59243.0,162003.0,123644.0,265224.0
59251.0,161993.0,123627.0,265191.0
59256.0,161972.0,123634.0,265187.0
59278.0,161977.0,123645.0,265177.0
59252.0,162010.0,123627.0,265211.0
59245.0,162003.0,123652.0,265192.0
59243.0,162013.0,123603.0,265157.0
59261.0,162006.0,123636.0,265174.0
59259.0,161999.0,123637.0,265106.0
59247.0,161988.0,123612.0,265154.0
59257.0,161993.0,123576.0,265129.0
59255.0,161963.0,123589.0,265122.0
59255.0,161979.0,123592.0,265119.0
59251.0,161967.0,123587.0,265143.0
59241.0,161979.0,123598.0,265070.0
59240.0,161979.0,123580.0,265134.0
59247.0,161965.0,123602.0,265154.0
59255.0,161986.0,123595.0,265136.0
59264.0,161973.0,123599.0,265112.0
59263.0,161997.0,123599.0,265129.0
59258.0,162015.0,123606.0,265138.0
59264.0,162032.0,123590.0,265135.0
59276.0,162064.0,123602.0,265116.0
59283.0,162026.0,123591.0,265090.0
59264.0,162046.0,123561.0,265110.0
59281.0,162062.0,123585.0,265123.0
59274.0,162089.0,123582.0,265112.0
59296.0,162081.0,123571.0,265084.0
59293.0,162112.0,123578.0,265121.0
59300.0,162131.0,123601.0,265119.0
59282.0,162178.0,123626.0,265125.0
59309.0,162176.0,123613.0,265156.0
59316.0,162204.0,123612.0,265149.0
59312.0,162211.0,123590.0,265192.0
59297.0,162227.0,123584.0,265140.0
59324.0,162256.0,123602.0,265200.0
59325.0,162289.0,123600.0,265166.0
59334.0,162315.0,123613.0,265222.0
59362.0,162346.0,123630.0,265205.0
59346.0,162378.0,123619.0,265201.0
59360.0,162375.0,123591.0,265253.0
59369.0,162424.0,123653.0,265228.0
59382.0,162466.0,123642.0,265251.0
59386.0,162500.0,123660.0,265243.0
59401.0,162559.0,123663.0,265239.0
59422.0,162575.0,123658.0,265258.0
59411.0,162637.0,123663.0,265312.0
59428.0,162638.0,123645.0,265268.0
59431.0,162684.0,123620.0,265243.0
59458.0,162697.0,123625.0,265224.0
59464.0,162729.0,123599.0,265214.0
59464.0,162766.0,123621.0,265202.0
59458.0,162771.0,123639.0,265165.0
59472.0,162827.0,123615.0,265174.0
59477.0,162844.0,123595.0,265198.0
59486.0,162849.0,123606.0,265212.0
59501.0,162867.0,123620.0,265218.0
59474.0,162897.0,123569.0,265215.0
59509.0,162956.0,123591.0,265209.0
59509.0,162951.0,123604.0,265204.0
59525.0,162958.0,123593.0,265190.0
59509.0,162982.0,123589.0,265168.0
59511.0,162985.0,123609.0,265159.0
59518.0,162960.0,123592.0,265149.0
59508.0,162967.0,123579.0,265149.0
59519.0,162964.0,123585.0,265144.0
59519.0,162935.0,123562.0,265088.0
59503.0,162929.0,123570.0,265094.0
59510.0,162901.0,123565.0,265076.0
59514.0,162908.0,123557.0,265070.0
59508.0,162893.0,123564.0,265062.0
59506.0,162912.0,123535.0,265050.0
59515.0,162894.0,123533.0,265036.0
59513.0,162871.0,123538.0,265011.0
59525.0,162897.0,123542.0,264998.0
59525.0,162895.0,123520.0,264963.0
59523.0,162892.0,123527.0,265027.0
59515.0,162895.0,123530.0,264992.0
59512.0,162893.0,123525.0,264976.0
59502.0,162882.0,123523.0,265017.0
59515.0,162885.0,123511.0,264981.0
59501.0,162867.0,123528.0,265013.0
59486.0,162886.0,123561.0,265026.0
59491.0,162873.0,123517.0,264987.0
59489.0,162850.0,123516.0,264977.0
59478.0,162871.0,123517.0,265014.0
59500.0,162870.0,123518.0,264994.0
59490.0,162881.0,123519.0,265004.0
59498.0,162902.0,123518.0,264993.0
59486.0,162892.0,123520.0,264984.0
59498.0,162861.0,123519.0,264975.0
59503.0,162892.0,123521.0,264996.0
59497.0,162908.0,123535.0,265020.0
59490.0,162932.0,123520.0,265002.0
59490.0,162931.0,123543.0,265041.0
59497.0,162919.0,123513.0,265012.0
59489.0,162911.0,123511.0,264999.0
59492.0,162887.0,123516.0,264991.0
59481.0,162893.0,123514.0,265009.0
59489.0,162893.0,123511.0,265007.0
59487.0,162904.0,123509.0,264987.0
59499.0,162923.0,123505.0,264980.0
59506.0,162930.0,123509.0,265001.0
59507.0,162934.0,123513.0,265018.0
59496.0,162947.0,123513.0,264989.0
59505.0,162969.0,123510.0,264985.0
59518.0,162968.0,123522.0,265015.0
59493.0,162981.0,123509.0,264970.0
59522.0,163014.0,123499.0,265010.0
59523.0,163017.0,123506.0,264985.0
59528.0,163013.0,123482.0,264972.0
59513.0,163035.0,123484.0,264959.0
59525.0,163042.0,123493.0,264974.0
59513.0,163063.0,123491.0,264938.0
59525.0,163050.0,123504.0,264951.0
59526.0,163048.0,123455.0,264933.0
59517.0,163056.0,123472.0,264926.0
59511.0,163071.0,123472.0,264938.0
59529.0,163051.0,123486.0,264962.0
59525.0,163089.0,123480.0,264951.0
59516.0,163105.0,123456.0,265018.0
59525.0,163094.0,123482.0,264995.0
59523.0,163105.0,123483.0,264995.0
59520.0,163129.0,123503.0,264997.0
59522.0,163119.0,123492.0,264994.0
59530.0,163165.0,123508.0,265021.0
59524.0,163131.0,123494.0,265032.0
59538.0,163150.0,123487.0,265019.0
59558.0,163151.0,123475.0,265016.0
59536.0,163169.0,123482.0,265006.0
59528.0,163212.0,123499.0,265034.0
59560.0,163223.0,123514.0,265054.0
59575.0,163250.0,123521.0,265043.0
59561.0,163254.0,123504.0,265053.0
59555.0,163255.0,123503.0,265087.0
59565.0,163267.0,123496.0,265025.0
59572.0,163256.0,123496.0,265036.0
59571.0,163249.0,123488.0,265027.0
59561.0,163231.0,123454.0,264966.0
59555.0,163198.0,123462.0,264926.0
59549.0,163153.0,123453.0,264900.0
59539.0,163124.0,123390.0,264864.0
59551.0,163056.0,123424.0,264841.0
59520.0,163019.0,123405.0,264870.0
59517.0,163000.0,123421.0,264870.0
59495.0,162963.0,123420.0,264886.0
59486.0,162930.0,123407.0,264870.0
59480.0,162939.0,123415.0,264885.0
59476.0,162891.0,123413.0,264862.0
59476.0,162870.0,123442.0,264845.0
59458.0,162864.0,123426.0,264925.0
59464.0,162855.0,123432.0,264909.0
59445.0,162812.0,123457.0,264922.0
59448.0,162771.0,123446.0,264919.0
59433.0,162774.0,123450.0,264935.0
59427.0,162781.0,123447.0,264928.0
59429.0,162741.0,123461.0,264952.0
59420.0,162729.0,123466.0,264923.0
59415.0,162706.0,123465.0,264970.0
59397.0,162693.0,123465.0,264899.0
59404.0,162670.0,123434.0,264933.0
59376.0,162649.0,123422.0,264926.0
59384.0,162612.0,123403.0,264899.0
59377.0,162557.0,123385.0,264840.0
59345.0,162527.0,123346.0,264806.0
59342.0,162480.0,123336.0,264804.0
59333.0,162445.0,123315.0,264764.0
59328.0,162422.0,123318.0,264771.0
59327.0,162415.0,123315.0,264797.0
59320.0,162425.0,123327.0,264770.0
59317.0,162397.0,123310.0,264747.0
59312.0,162386.0,123333.0,264776.0
59313.0,162418.0,123331.0,264753.0
59313.0,162406.0,123337.0,264760.0
59322.0,162434.0,123347.0,264830.0
59332.0,162448.0,123354.0,264788.0
59311.0,162477.0,123331.0,264797.0
59319.0,162451.0,123319.0,264815.0
59337.0,162470.0,123358.0,264797.0
59335.0,162506.0,123375.0,264800.0
59355.0,162532.0,123356.0,264813.0
59366.0,162573.0,123341.0,264796.0
59361.0,162587.0,123319.0,264781.0
59369.0,162588.0,123342.0,264785.0
59374.0,162621.0,123338.0,264783.0
59365.0,162651.0,123346.0,264804.0
59392.0,162683.0,123345.0,264796.0
59406.0,162720.0,123367.0,264803.0
59408.0,162776.0,123365.0,264845.0
59417.0,162792.0,123371.0,264833.0
59421.0,162838.0,123354.0,264862.0
59436.0,162853.0,123368.0,264823.0
59444.0,162891.0,123376.0,264866.0
59429.0,162892.0,123359.0,264770.0
59445.0,162938.0,123371.0,264865.0
59461.0,162942.0,123333.0,264833.0
59455.0,162966.0,123368.0,264848.0
59450.0,162991.0,123375.0,264850.0
59469.0,163015.0,123360.0,264815.0
59476.0,163056.0,123348.0,264812.0
59486.0,163047.0,123357.0,264822.0
59492.0,163084.0,123363.0,264850.0
59499.0,163081.0,123365.0,264824.0
59500.0,163138.0,123349.0,264826.0
59494.0,163160.0,123348.0,264839.0
59507.0,163150.0,123355.0,264839.0
59507.0,163199.0,123324.0,264833.0
59511.0,163203.0,123324.0,264810.0
59507.0,163202.0,123330.0,264812.0
59523.0,163230.0,123329.0,264819.0
59506.0,163194.0,123324.0,264822.0
59509.0,163191.0,123312.0,264828.0
59510.0,163206.0,123315.0,264790.0
59513.0,163163.0,123322.0,264818.0
59506.0,163174.0,123307.0,264790.0
59509.0,163100.0,123298.0,264758.0
59505.0,163123.0,123309.0,264775.0
59480.0,163095.0,123283.0,264755.0
59484.0,163027.0,123278.0,264732.0
59474.0,163000.0,123290.0,264701.0
59467.0,162957.0,123282.0,264721.0
59434.0,162941.0,123280.0,264748.0
59445.0,162927.0,123279.0,264730.0
59452.0,162906.0,123279.0,264686.0
59434.0,162884.0,123279.0,264671.0
59424.0,162870.0,123263.0,264672.0
59431.0,162854.0,123282.0,264637.0
59423.0,162859.0,123296.0,264657.0
59414.0,162823.0,123248.0,264629.0
59408.0,162803.0,123260.0,264645.0
59407.0,162762.0,123260.0,264657.0
59398.0,162781.0,123245.0,264655.0
59407.0,162745.0,123283.0,264678.0
59382.0,162708.0,123275.0,264634.0
59373.0,162694.0,123262.0,264673.0
59370.0,162700.0,123255.0,264697.0
59355.0,162668.0,123261.0,264661.0
59360.0,162649.0,123270.0,264668.0
59358.0,162640.0,123251.0,264644.0
59344.0,162630.0,123264.0,264678.0
59342.0,162611.0,123245.0,264653.0
59335.0,162562.0,123251.0,264623.0
59331.0,162571.0,123220.0,264603.0
59324.0,162569.0,123197.0,264616.0
59339.0,162533.0,123205.0,264605.0
59303.0,162454.0,123202.0,264524.0
59295.0,162452.0,123157.0,264526.0
59289.0,162422.0,123150.0,264528.0
59279.0,162401.0,123159.0,264532.0
59260.0,162366.0,123132.0,264500.0
59264.0,162339.0,123130.0,264469.0
59255.0,162331.0,123128.0,264469.0
59265.0,162352.0,123138.0,264490.0
59259.0,162344.0,123135.0,264480.0
59273.0,162341.0,123132.0,264450.0
59249.0,162351.0,123116.0,264481.0
59263.0,162372.0,123115.0,264473.0
59270.0,162380.0,123122.0,264470.0
59275.0,162412.0,123129.0,264470.0
59272.0,162444.0,123130.0,264483.0
59280.0,162417.0,123113.0,264439.0
59309.0,162494.0,123116.0,264465.0
59311.0,162511.0,123108.0,264459.0
59319.0,162564.0,123118.0,264475.0
59335.0,162568.0,123096.0,264469.0
59324.0,162571.0,123117.0,264487.0
59323.0,162583.0,123147.0,264486.0
59337.0,162631.0,123144.0,264506.0
59341.0,162611.0,123120.0,264509.0
59319.0,162621.0,123117.0,264499.0
59329.0,162603.0,123155.0,264497.0
59339.0,162638.0,123139.0,264500.0
59333.0,162667.0,123139.0,264537.0
59340.0,162686.0,123155.0,264556.0
59330.0,162708.0,123168.0,264564.0
59351.0,162703.0,123173.0,264569.0
59346.0,162732.0,123178.0,264577.0
59363.0,162756.0,123173.0,264583.0
59350.0,162769.0,123176.0,264598.0
59376.0,162802.0,123173.0,264593.0
59389.0,162823.0,123168.0,264614.0
59374.0,162827.0,123161.0,264611.0
59363.0,162847.0,123173.0,264632.0
59379.0,162878.0,123189.0,264639.0
59392.0,162878.0,123174.0,264628.0
59397.0,162923.0,123184.0,264623.0
59399.0,162936.0,123185.0,264629.0
59402.0,162982.0,123182.0,264658.0
59412.0,162988.0,123193.0,264603.0
59414.0,162975.0,123200.0,264613.0
59408.0,162941.0,123159.0,264611.0
59417.0,162941.0,123177.0,264598.0
59400.0,162935.0,123161.0,264590.0
59389.0,162891.0,123174.0,264565.0
59382.0,162835.0,123150.0,264543.0
59377.0,162829.0,123146.0,264575.0
59370.0,162799.0,123154.0,264529.0
59363.0,162746.0,123149.0,264494.0
59340.0,162692.0,123150.0,264490.0
59340.0,162669.0,123146.0,264549.0
59318.0,162647.0,123138.0,264510.0
59326.0,162611.0,123140.0,264499.0
59320.0,162572.0,123127.0,264470.0
59301.0,162555.0,123127.0,264495.0
59300.0,162536.0,123114.0,264465.0
59268.0,162509.0,123116.0,264460.0
59268.0,162476.0,123112.0,264481.0
59260.0,162428.0,123110.0,264454.0
59249.0,162386.0,123114.0,264430.0
59233.0,162374.0,123107.0,264420.0
59222.0,162326.0,123071.0,264425.0
59215.0,162281.0,123086.0,264411.0
59227.0,162251.0,123077.0,264413.0
59208.0,162275.0,123075.0,264473.0
59208.0,162241.0,123084.0,264445.0
59205.0,162212.0,123097.0,264424.0
59196.0,162232.0,123101.0,264437.0
59191.0,162199.0,123096.0,264420.0
59186.0,162186.0,123099.0,264483.0
59196.0,162162.0,123086.0,264453.0
59184.0,162132.0,123099.0,264422.0
59167.0,162125.0,123083.0,264432.0
59158.0,162110.0,123062.0,264433.0
59161.0,162081.0,123086.0,264416.0
59165.0,162085.0,123104.0,264409.0
59154.0,162064.0,123075.0,264469.0
59146.0,162026.0,123066.0,264401.0
59136.0,162030.0,123102.0,264462.0
59158.0,162023.0,123107.0,264460.0
59139.0,161993.0,123093.0,264439.0
59129.0,161965.0,123064.0,264447.0
59138.0,161979.0,123102.0,264471.0
59120.0,161961.0,123109.0,264439.0
59118.0,161986.0,123102.0,264473.0
59116.0,161988.0,123098.0,264421.0
59107.0,161951.0,123085.0,264450.0
59113.0,161954.0,123103.0,264480.0
59116.0,161966.0,123102.0,264464.0
59121.0,161970.0,123080.0,264467.0
59104.0,161967.0,123098.0,264464.0
59107.0,161971.0,123092.0,264463.0
59119.0,161956.0,123095.0,264498.0
59097.0,161969.0,123086.0,264492.0
59115.0,161957.0,123093.0,264496.0
59124.0,161979.0,123073.0,264477.0
59137.0,161993.0,123076.0,264447.0
59118.0,161949.0,123094.0,264464.0
59110.0,161942.0,123102.0,264487.0
59100.0,161968.0,123063.0,264451.0
59104.0,161962.0,123073.0,264482.0
59115.0,161978.0,123084.0,264476.0
59109.0,161992.0,123080.0,264481.0
59117.0,161982.0,123098.0,264508.0
59120.0,162022.0,123099.0,264519.0
59132.0,162035.0,123069.0,264539.0
59124.0,162025.0,123076.0,264529.0
59109.0,162016.0,123096.0,264517.0
59125.0,162014.0,123067.0,264495.0
59118.0,162016.0,123063.0,264479.0
59105.0,162015.0,123078.0,264493.0
59114.0,162010.0,123089.0,264494.0
59109.0,161986.0,123065.0,264508.0
59127.0,162019.0,123036.0,264507.0
59102.0,162014.0,123066.0,264508.0
59111.0,162023.0,123068.0,264494.0
59121.0,162054.0,123060.0,264524.0
59120.0,162066.0,123072.0,264533.0
59135.0,162060.0,123072.0,264544.0
59141.0,162051.0,123063.0,264507.0
59139.0,162028.0,123072.0,264517.0
59089.0,162005.0,123048.0,264451.0
59108.0,161976.0,123045.0,264447.0
59110.0,161962.0,123026.0,264446.0
59103.0,161914.0,123030.0,264460.0
59088.0,161885.0,123031.0,264425.0
59077.0,161853.0,123028.0,264388.0
59092.0,161838.0,123047.0,264407.0
59069.0,161807.0,123031.0,264390.0
59084.0,161758.0,123037.0,264394.0
59068.0,161790.0,123003.0,264360.0
59053.0,161714.0,123006.0,264365.0
59042.0,161690.0,123007.0,264350.0
59046.0,161655.0,123018.0,264362.0
59040.0,161625.0,123009.0,264370.0
59030.0,161615.0,123011.0,264337.0
59029.0,161590.0,123003.0,264345.0
59000.0,161562.0,123000.0,264333.0
59008.0,161543.0,123011.0,264372.0
58989.0,161522.0,123020.0,264373.0
58986.0,161509.0,122992.0,264320.0
58990.0,161476.0,122989.0,264364.0
58955.0,161478.0,123016.0,264369.0
58965.0,161469.0,122990.0,264351.0
58968.0,161434.0,123015.0,264312.0
58966.0,161441.0,122995.0,264348.0
58955.0,161435.0,122998.0,264347.0
58968.0,161423.0,123004.0,264336.0
58958.0,161440.0,123022.0,264332.0
58963.0,161424.0,123011.0,264357.0
58976.0,161408.0,122979.0,264351.0
58952.0,161387.0,122994.0,264371.0
58918.0,161366.0,122991.0,264298.0
