49680.0,126953.0,114204.0,247341.0
49692.0,126932.0,114196.0,247274.0
49676.0,126886.0,114191.0,247222.0
49675.0,126875.0,114167.0,247266.0
49674.0,126835.0,114164.0,247206.0
49658.0,126803.0,114163.0,247227.0
49661.0,126775.0,114156.0,247223.0
49649.0,126765.0,114141.0,247180.0
49647.0,126736.0,114124.0,247173.0
49640.0,126720.0,114150.0,247167.0
49624.0,126675.0,114138.0,247166.0
49621.0,126649.0,114147.0,247183.0
49617.0,126620.0,114152.0,247221.0
49597.0,126600.0,114136.0,247224.0
49595.0,126560.0,114127.0,247234.0
49593.0,126546.0,114135.0,247241.0
49603.0,126566.0,114165.0,247231.0
49581.0,126489.0,114127.0,247202.0
49569.0,126467.0,114102.0,247192.0
49568.0,126467.0,114121.0,247207.0
49550.0,126422.0,114060.0,247167.0
49552.0,126409.0,114088.0,247169.0
49542.0,126379.0,114096.0,247170.0
49547.0,126388.0,114091.0,247145.0
49553.0,126357.0,114086.0,247127.0
49537.0,126330.0,114049.0,247127.0
49525.0,126299.0,114058.0,247125.0
49528.0,126271.0,114062.0,247117.0
49520.0,126279.0,114051.0,247127.0
49518.0,126240.0,114042.0,247101.0
49520.0,126215.0,114045.0,247127.0
49506.0,126215.0,114030.0,247133.0
49479.0,126184.0,114016.0,247069.0
49504.0,126158.0,113989.0,247054.0
49503.0,126136.0,114012.0,247063.0
49476.0,126121.0,113990.0,247033.0
49478.0,126093.0,113981.0,247034.0
49465.0,126080.0,113982.0,247019.0
49478.0,126061.0,113950.0,246997.0
49462.0,126046.0,113940.0,246995.0
49467.0,126012.0,113994.0,247016.0
49465.0,126012.0,113956.0,247014.0
49434.0,125993.0,113958.0,246996.0
49448.0,125970.0,113939.0,247010.0
49435.0,125985.0,113942.0,247021.0
49447.0,125940.0,113945.0,247030.0
49442.0,125946.0,113944.0,247000.0
49434.0,125934.0,113924.0,246989.0
49427.0,125898.0,113909.0,247001.0
49432.0,125922.0,113916.0,246985.0
49450.0,125932.0,113867.0,246994.0
49429.0,125879.0,113932.0,246985.0
49426.0,125885.0,113907.0,246979.0
49433.0,125859.0,113928.0,246985.0
49428.0,125843.0,113906.0,246997.0
49418.0,125822.0,113886.0,247012.0
49423.0,125824.0,113912.0,247009.0
49421.0,125814.0,113892.0,247003.0
49415.0,125800.0,113914.0,247059.0
49412.0,125796.0,113887.0,247049.0
49403.0,125780.0,113876.0,247026.0
49403.0,125763.0,113876.0,247036.0
49408.0,125729.0,113896.0,247048.0
49410.0,125767.0,113903.0,247083.0
49420.0,125765.0,113919.0,247142.0
49404.0,125756.0,113914.0,247144.0
49421.0,125764.0,113910.0,247183.0
49410.0,125738.0,113925.0,247144.0
49398.0,125759.0,113894.0,247149.0
49404.0,125741.0,113881.0,247124.0
49413.0,125735.0,113884.0,247093.0
49419.0,125750.0,113866.0,247099.0
49409.0,125761.0,113867.0,247087.0
49403.0,125761.0,113871.0,247128.0
49417.0,125736.0,113863.0,247087.0
49416.0,125757.0,113854.0,247097.0
49417.0,125714.0,113848.0,247058.0
49407.0,125715.0,113871.0,247087.0
49415.0,125712.0,113851.0,247053.0
49406.0,125668.0,113829.0,247012.0
49390.0,125669.0,113832.0,246988.0
49388.0,125618.0,113813.0,247013.0
49392.0,125592.0,113830.0,246963.0
49372.0,125574.0,113818.0,246962.0
49348.0,125544.0,113827.0,246937.0
49364.0,125518.0,113803.0,246959.0
49352.0,125501.0,113798.0,246934.0
49335.0,125464.0,113764.0,246877.0
49340.0,125430.0,113760.0,246915.0
49333.0,125392.0,113743.0,246853.0
49329.0,125393.0,113755.0,246905.0
49325.0,125359.0,113729.0,246871.0
49309.0,125341.0,113733.0,246865.0
49308.0,125314.0,113738.0,246830.0
49308.0,125296.0,113729.0,246857.0
49293.0,125296.0,113701.0,246820.0
49293.0,125286.0,113707.0,246811.0
49286.0,125258.0,113686.0,246814.0
49287.0,125239.0,113676.0,246766.0
49271.0,125236.0,113666.0,246763.0
49267.0,125209.0,113635.0,246755.0
49290.0,125179.0,113614.0,246730.0
49270.0,125174.0,113627.0,246732.0
49260.0,125164.0,113621.0,246715.0
49270.0,125156.0,113618.0,246700.0
49290.0,125128.0,113611.0,246690.0
49263.0,125110.0,113618.0,246693.0
49257.0,125118.0,113602.0,246683.0
49254.0,125109.0,113604.0,246726.0
49262.0,125092.0,113634.0,246734.0
49262.0,125095.0,113618.0,246744.0
49248.0,125097.0,113617.0,246781.0
49251.0,125088.0,113604.0,246725.0
49256.0,125073.0,113617.0,246736.0
49251.0,125060.0,113616.0,246708.0
49261.0,125071.0,113616.0,246721.0
49258.0,125059.0,113592.0,246734.0
49250.0,125041.0,113576.0,246680.0
49259.0,125046.0,113568.0,246696.0
49243.0,125032.0,113564.0,246710.0
49243.0,125027.0,113590.0,246702.0
49247.0,125041.0,113594.0,246731.0
49251.0,125023.0,113597.0,246742.0
49262.0,125027.0,113558.0,246742.0
49257.0,125026.0,113573.0,246719.0
49264.0,125009.0,113581.0,246707.0
49249.0,125026.0,113555.0,246721.0
49245.0,125023.0,113571.0,246714.0
49251.0,125020.0,113549.0,246725.0
49269.0,125029.0,113536.0,246703.0
49253.0,125018.0,113532.0,246719.0
49256.0,125023.0,113536.0,246727.0
49251.0,125017.0,113506.0,246674.0
49252.0,124990.0,113505.0,246663.0
49263.0,124968.0,113494.0,246632.0
49228.0,124974.0,113465.0,246647.0
49253.0,124962.0,113482.0,246638.0
49249.0,124958.0,113481.0,246662.0
49244.0,124949.0,113478.0,246622.0
49247.0,124948.0,113468.0,246631.0
49237.0,124936.0,113452.0,246596.0
49237.0,124941.0,113464.0,246579.0
49251.0,124934.0,113424.0,246629.0
49239.0,124901.0,113425.0,246562.0
49242.0,124922.0,113411.0,246556.0
49236.0,124918.0,113415.0,246556.0
49243.0,124922.0,113416.0,246584.0
49250.0,124916.0,113407.0,246567.0
49249.0,124906.0,113408.0,246578.0
49247.0,124919.0,113413.0,246602.0
49249.0,124906.0,113437.0,246626.0
49251.0,124940.0,113438.0,246634.0
49273.0,124947.0,113445.0,246660.0
49257.0,124939.0,113441.0,246632.0
49257.0,124939.0,113413.0,246635.0
49259.0,124907.0,113396.0,246594.0
49267.0,124893.0,113408.0,246590.0
49252.0,124906.0,113406.0,246598.0
49264.0,124870.0,113401.0,246621.0
49235.0,124858.0,113419.0,246625.0
49241.0,124836.0,113394.0,246551.0
49227.0,124815.0,113389.0,246541.0
49236.0,124788.0,113380.0,246562.0
49219.0,124745.0,113382.0,246519.0
49205.0,124744.0,113356.0,246495.0
49198.0,124710.0,113344.0,246512.0
49184.0,124665.0,113338.0,246469.0
49172.0,124650.0,113332.0,246444.0
49184.0,124600.0,113300.0,246423.0
49151.0,124574.0,113272.0,246349.0
49147.0,124517.0,113239.0,246312.0
49147.0,124481.0,113216.0,246276.0
49129.0,124420.0,113178.0,246238.0
49122.0,124388.0,113160.0,246225.0
49115.0,124357.0,113165.0,246268.0
49124.0,124341.0,113187.0,246312.0
49102.0,124322.0,113211.0,246342.0
49093.0,124321.0,113231.0,246394.0
49108.0,124319.0,113259.0,246387.0
49089.0,124321.0,113246.0,246385.0
49107.0,124309.0,113272.0,246412.0
49124.0,124313.0,113268.0,246414.0
49104.0,124314.0,113269.0,246410.0
49095.0,124295.0,113263.0,246432.0
49106.0,124305.0,113275.0,246447.0
49109.0,124304.0,113276.0,246442.0
49110.0,124273.0,113264.0,246478.0
49105.0,124277.0,113249.0,246446.0
49100.0,124274.0,113257.0,246438.0
49112.0,124283.0,113284.0,246432.0
49102.0,124281.0,113261.0,246431.0
49108.0,124274.0,113276.0,246447.0
49103.0,124275.0,113270.0,246461.0
49109.0,124284.0,113258.0,246477.0
49108.0,124284.0,113267.0,246454.0
49106.0,124260.0,113285.0,246464.0
49107.0,124277.0,113257.0,246437.0
49113.0,124302.0,113240.0,246458.0
49114.0,124288.0,113255.0,246413.0
49127.0,124288.0,113243.0,246424.0
49123.0,124285.0,113244.0,246429.0
49099.0,124289.0,113239.0,246425.0
49110.0,124301.0,113227.0,246408.0
49116.0,124277.0,113189.0,246416.0
49122.0,124278.0,113219.0,246378.0
49128.0,124289.0,113207.0,246373.0
49127.0,124296.0,113178.0,246377.0
49126.0,124302.0,113184.0,246376.0
49132.0,124313.0,113203.0,246425.0
49125.0,124297.0,113200.0,246376.0
49136.0,124323.0,113199.0,246393.0
49149.0,124298.0,113215.0,246377.0
49147.0,124338.0,113198.0,246401.0
49129.0,124358.0,113174.0,246380.0
49151.0,124325.0,113186.0,246383.0
49149.0,124310.0,113170.0,246345.0
49151.0,124329.0,113167.0,246299.0
49151.0,124341.0,113121.0,246309.0
49135.0,124325.0,113141.0,246345.0
49151.0,124333.0,113153.0,246326.0
49145.0,124331.0,113147.0,246348.0
49139.0,124340.0,113148.0,246393.0
49157.0,124341.0,113126.0,246333.0
49156.0,124351.0,113145.0,246296.0
49153.0,124333.0,113140.0,246311.0
49151.0,124336.0,113129.0,246345.0
49157.0,124338.0,113103.0,246304.0
49158.0,124341.0,113141.0,246313.0
49159.0,124350.0,113117.0,246295.0
49160.0,124335.0,113098.0,246254.0
49153.0,124308.0,113087.0,246257.0
49159.0,124293.0,113079.0,246238.0
49149.0,124290.0,113103.0,246287.0
49151.0,124274.0,113110.0,246267.0
49143.0,124261.0,113113.0,246285.0
49141.0,124252.0,113100.0,246243.0
49121.0,124207.0,113105.0,246246.0
49138.0,124193.0,113138.0,246277.0
49121.0,124180.0,113139.0,246310.0
49123.0,124174.0,113139.0,246298.0
49115.0,124159.0,113128.0,246297.0
49115.0,124151.0,113124.0,246285.0
49117.0,124113.0,113148.0,246297.0
49116.0,124114.0,113120.0,246241.0
49108.0,124120.0,113133.0,246277.0
49116.0,124098.0,113130.0,246285.0
49120.0,124090.0,113125.0,246257.0
49104.0,124061.0,113131.0,246283.0
49100.0,124034.0,113156.0,246330.0
49101.0,124042.0,113143.0,246327.0
49096.0,124008.0,113159.0,246371.0
49095.0,124020.0,113158.0,246337.0
49101.0,124003.0,113148.0,246356.0
49084.0,123979.0,113163.0,246356.0
49082.0,123965.0,113160.0,246380.0
49085.0,123961.0,113185.0,246367.0
49072.0,123946.0,113168.0,246368.0
49086.0,123952.0,113154.0,246347.0
49095.0,123929.0,113145.0,246302.0
49080.0,123906.0,113152.0,246348.0
49069.0,123903.0,113141.0,246333.0
49079.0,123881.0,113146.0,246334.0
49078.0,123892.0,113151.0,246316.0
49080.0,123874.0,113152.0,246319.0
49081.0,123863.0,113134.0,246331.0
49071.0,123863.0,113141.0,246331.0
49071.0,123862.0,113130.0,246321.0
49071.0,123846.0,113103.0,246324.0
49071.0,123838.0,113093.0,246305.0
49070.0,123837.0,113117.0,246316.0
49095.0,123854.0,113093.0,246321.0
49073.0,123820.0,113125.0,246299.0
49064.0,123818.0,113100.0,246268.0
49073.0,123822.0,113113.0,246308.0
49071.0,123819.0,113090.0,246326.0
49071.0,123827.0,113103.0,246308.0
49080.0,123821.0,113087.0,246309.0
49064.0,123820.0,113105.0,246341.0
49056.0,123803.0,113084.0,246317.0
49071.0,123797.0,113090.0,246291.0
49061.0,123810.0,113071.0,246330.0
49064.0,123821.0,113069.0,246287.0
49064.0,123818.0,113063.0,246270.0
49070.0,123822.0,113053.0,246297.0
49069.0,123823.0,113047.0,246278.0
49084.0,123811.0,113068.0,246269.0
49069.0,123824.0,113064.0,246280.0
49072.0,123822.0,113084.0,246306.0
49065.0,123805.0,113082.0,246331.0
49089.0,123848.0,113071.0,246344.0
49093.0,123834.0,113068.0,246302.0
49095.0,123830.0,113074.0,246316.0
49083.0,123836.0,113058.0,246337.0
49082.0,123854.0,113061.0,246341.0
49089.0,123830.0,113083.0,246340.0
49097.0,123844.0,113073.0,246320.0
49095.0,123848.0,113082.0,246380.0
49085.0,123845.0,113084.0,246410.0
49106.0,123852.0,113092.0,246407.0
49087.0,123839.0,113079.0,246391.0
49094.0,123851.0,113100.0,246434.0
49089.0,123843.0,113107.0,246410.0
49085.0,123841.0,113104.0,246373.0
49090.0,123812.0,113109.0,246393.0
49085.0,123776.0,113087.0,246405.0
49073.0,123759.0,113100.0,246369.0
49064.0,123722.0,113107.0,246363.0
49068.0,123718.0,113110.0,246370.0
49056.0,123699.0,113102.0,246358.0
49045.0,123673.0,113095.0,246342.0
49050.0,123651.0,113103.0,246338.0
49053.0,123631.0,113080.0,246302.0
49028.0,123606.0,113091.0,246305.0
49028.0,123600.0,113078.0,246356.0
49015.0,123576.0,113082.0,246303.0
49023.0,123546.0,113073.0,246326.0
49030.0,123555.0,113099.0,246305.0
48998.0,123513.0,113056.0,246322.0
48995.0,123492.0,113062.0,246304.0
48993.0,123472.0,113052.0,246269.0
48993.0,123473.0,113040.0,246296.0
48994.0,123431.0,113035.0,246227.0
48993.0,123392.0,113033.0,246227.0
48991.0,123402.0,113042.0,246215.0
48977.0,123396.0,113015.0,246189.0
48965.0,123367.0,112988.0,246198.0
48993.0,123344.0,112996.0,246159.0
48974.0,123352.0,112996.0,246215.0
48957.0,123344.0,113003.0,246165.0
48969.0,123323.0,112984.0,246185.0
48975.0,123323.0,112977.0,246176.0
48965.0,123314.0,112972.0,246154.0
48942.0,123298.0,112960.0,246154.0
48950.0,123300.0,112969.0,246166.0
48957.0,123282.0,112992.0,246178.0
48958.0,123304.0,112965.0,246169.0
48952.0,123259.0,112977.0,246157.0
48943.0,123267.0,112978.0,246174.0
48939.0,123283.0,112975.0,246216.0
48942.0,123255.0,112979.0,246210.0
48944.0,123243.0,112984.0,246237.0
48956.0,123223.0,113011.0,246242.0
48943.0,123239.0,112970.0,246264.0
48937.0,123199.0,112974.0,246208.0
48940.0,123192.0,112987.0,246230.0
48941.0,123212.0,112981.0,246210.0
48933.0,123198.0,112985.0,246226.0
48941.0,123186.0,112969.0,246206.0
48943.0,123189.0,112950.0,246234.0
48946.0,123177.0,112979.0,246213.0
48927.0,123164.0,112978.0,246225.0
48927.0,123183.0,112986.0,246239.0
48940.0,123172.0,112965.0,246230.0
48926.0,123185.0,112953.0,246214.0
48930.0,123156.0,112949.0,246219.0
48929.0,123143.0,112954.0,246185.0
48925.0,123159.0,112940.0,246191.0
48940.0,123174.0,112932.0,246199.0
48935.0,123172.0,112935.0,246232.0
48937.0,123171.0,112932.0,246187.0
48921.0,123176.0,112918.0,246204.0
48927.0,123170.0,112927.0,246167.0
48941.0,123152.0,112911.0,246151.0
48932.0,123161.0,112889.0,246222.0
48927.0,123157.0,112908.0,246169.0
48941.0,123151.0,112903.0,246194.0
48940.0,123143.0,112905.0,246187.0
48937.0,123155.0,112886.0,246166.0
48944.0,123166.0,112912.0,246170.0
48935.0,123161.0,112879.0,246142.0
48928.0,123173.0,112887.0,246151.0
48945.0,123194.0,112888.0,246151.0
48938.0,123166.0,112850.0,246171.0
48953.0,123192.0,112897.0,246178.0
48936.0,123201.0,112900.0,246214.0
48959.0,123189.0,112897.0,246205.0
48938.0,123214.0,112900.0,246225.0
48949.0,123223.0,112918.0,246242.0
48963.0,123242.0,112913.0,246242.0
48964.0,123229.0,112896.0,246199.0
48968.0,123231.0,112902.0,246196.0
48966.0,123225.0,112902.0,246222.0
48955.0,123232.0,112881.0,246192.0
48965.0,123211.0,112907.0,246187.0
48960.0,123203.0,112877.0,246179.0
48965.0,123197.0,112881.0,246158.0
48951.0,123172.0,112888.0,246170.0
48946.0,123168.0,112881.0,246174.0
48951.0,123145.0,112898.0,246165.0
48916.0,123137.0,112859.0,246135.0
48934.0,123138.0,112877.0,246152.0
48919.0,123109.0,112872.0,246157.0
48927.0,123090.0,112868.0,246152.0
48912.0,123068.0,112874.0,246152.0
48919.0,123059.0,112867.0,246159.0
48893.0,123040.0,112858.0,246160.0
48894.0,123056.0,112855.0,246137.0
48900.0,123027.0,112851.0,246140.0
48887.0,122999.0,112834.0,246126.0
48906.0,123018.0,112821.0,246090.0
48880.0,122994.0,112838.0,246087.0
48887.0,122985.0,112851.0,246082.0
48888.0,122969.0,112842.0,246073.0
48873.0,122967.0,112840.0,246080.0
48882.0,122953.0,112833.0,246048.0
48891.0,122937.0,112802.0,246056.0
48844.0,122937.0,112788.0,246027.0
48882.0,122917.0,112794.0,246041.0
48883.0,122922.0,112809.0,246012.0
48869.0,122928.0,112804.0,246032.0
48875.0,122916.0,112774.0,246027.0
48880.0,122924.0,112786.0,245976.0
48885.0,122928.0,112767.0,246002.0
48882.0,122940.0,112772.0,245975.0
48882.0,122911.0,112757.0,245992.0
48884.0,122902.0,112761.0,245986.0
48868.0,122913.0,112770.0,246012.0
48894.0,122916.0,112777.0,246001.0
48878.0,122907.0,112778.0,246035.0
48884.0,122917.0,112772.0,246031.0
48886.0,122919.0,112768.0,246051.0
48886.0,122928.0,112771.0,246050.0
48885.0,122922.0,112777.0,246045.0
48870.0,122926.0,112742.0,246042.0
48883.0,122907.0,112758.0,246028.0
48883.0,122933.0,112750.0,246031.0
48890.0,122922.0,112755.0,246006.0
48890.0,122903.0,112731.0,246031.0
48874.0,122940.0,112753.0,246025.0
48883.0,122947.0,112728.0,246037.0
48882.0,122946.0,112743.0,246032.0
48895.0,122946.0,112731.0,245999.0
48900.0,122949.0,112740.0,246039.0
48890.0,122947.0,112728.0,246028.0
48886.0,122955.0,112730.0,246011.0
48890.0,122952.0,112727.0,246017.0
48898.0,122950.0,112714.0,246050.0
48909.0,122958.0,112703.0,246010.0
48906.0,122951.0,112712.0,246014.0
48904.0,122947.0,112714.0,246007.0
48879.0,122950.0,112706.0,245982.0
48901.0,122943.0,112694.0,245997.0
48899.0,122937.0,112701.0,246022.0
48915.0,122957.0,112707.0,246048.0
48913.0,122957.0,112714.0,246048.0
48909.0,122957.0,112725.0,246047.0
48896.0,122966.0,112736.0,246072.0
48918.0,122926.0,112740.0,246035.0
48896.0,122940.0,112739.0,246049.0
48907.0,122931.0,112739.0,246089.0
48902.0,122952.0,112710.0,246036.0
48907.0,122958.0,112703.0,246078.0
48902.0,122965.0,112724.0,246078.0
48899.0,122971.0,112735.0,246114.0
48919.0,122996.0,112722.0,246114.0
48929.0,122989.0,112737.0,246141.0
48927.0,123002.0,112722.0,246118.0
48922.0,122995.0,112712.0,246096.0
48930.0,123014.0,112708.0,246102.0
48918.0,123008.0,112684.0,246105.0
48937.0,123009.0,112712.0,246109.0
48927.0,123011.0,112704.0,246079.0
48929.0,123008.0,112719.0,246039.0
48926.0,122990.0,112715.0,246055.0
48929.0,122995.0,112711.0,246086.0
48927.0,122996.0,112687.0,246060.0
48933.0,122990.0,112676.0,246029.0
48927.0,122972.0,112673.0,246040.0
48931.0,122966.0,112657.0,246000.0
48918.0,122972.0,112652.0,245964.0
48918.0,122958.0,112653.0,245987.0
48911.0,122918.0,112661.0,245983.0
48909.0,122928.0,112655.0,245984.0
48905.0,122925.0,112636.0,245995.0
48897.0,122916.0,112634.0,246007.0
48890.0,122894.0,112665.0,245974.0
48896.0,122877.0,112640.0,245941.0
48912.0,122879.0,112639.0,246005.0
48905.0,122861.0,112643.0,245967.0
48908.0,122866.0,112637.0,245949.0
48894.0,122861.0,112635.0,245967.0
48888.0,122840.0,112638.0,245989.0
48897.0,122844.0,112628.0,245973.0
48884.0,122835.0,112635.0,245967.0
48888.0,122822.0,112621.0,245955.0
48869.0,122824.0,112630.0,245963.0
48879.0,122811.0,112610.0,245927.0
48887.0,122801.0,112616.0,245903.0
48877.0,122843.0,112588.0,245940.0
48887.0,122829.0,112611.0,245928.0
48879.0,122826.0,112599.0,245959.0
48861.0,122816.0,112606.0,245914.0
48884.0,122820.0,112601.0,245931.0
48887.0,122822.0,112596.0,245929.0
48886.0,122818.0,112585.0,245915.0
48885.0,122825.0,112591.0,245941.0
48887.0,122810.0,112600.0,245941.0
48886.0,122804.0,112575.0,245927.0
48879.0,122796.0,112604.0,245950.0
48871.0,122793.0,112624.0,245947.0
48890.0,122811.0,112591.0,245938.0
48889.0,122809.0,112573.0,245967.0
48885.0,122813.0,112585.0,245976.0
48897.0,122785.0,112557.0,245953.0
48889.0,122809.0,112590.0,245949.0
48896.0,122817.0,112578.0,245973.0
