222461.0,315832.0,178626.0,281472.0
222443.0,315810.0,178647.0,281432.0
222414.0,315766.0,178632.0,281459.0
222368.0,315743.0,178608.0,281473.0
222337.0,315680.0,178636.0,281500.0
222304.0,315646.0,178621.0,281521.0
222315.0,315680.0,178587.0,281495.0
222314.0,315688.0,178580.0,281453.0
222333.0,315747.0,178563.0,281429.0
222346.0,315779.0,178578.0,281395.0
222353.0,315794.0,178595.0,281439.0
222366.0,315839.0,178612.0,281501.0
222345.0,315852.0,178650.0,281586.0
222365.0,315858.0,178651.0,281595.0
222347.0,315845.0,178626.0,281605.0
222353.0,315820.0,178616.0,281584.0
222313.0,315759.0,178584.0,281547.0
222312.0,315665.0,178587.0,281505.0
222227.0,315602.0,178563.0,281519.0
222213.0,315510.0,178519.0,281470.0
222158.0,315422.0,178500.0,281397.0
222132.0,315368.0,178449.0,281389.0
222079.0,315322.0,178435.0,281350.0
222038.0,315214.0,178406.0,281385.0
221966.0,315105.0,178420.0,281398.0
221938.0,314995.0,178444.0,281443.0
221846.0,314845.0,178415.0,281395.0
221755.0,314705.0,178440.0,281395.0
221695.0,314564.0,178399.0,281381.0
221604.0,314421.0,178395.0,281419.0
221570.0,314367.0,178400.0,281456.0
221518.0,314332.0,178405.0,281373.0
221457.0,314225.0,178355.0,281370.0
221444.0,314145.0,178372.0,281382.0
221425.0,314058.0,178349.0,281319.0
221360.0,314019.0,178297.0,281300.0
221299.0,313923.0,178292.0,281215.0
221257.0,313818.0,178302.0,281300.0
221203.0,313733.0,178349.0,281386.0
221150.0,313639.0,178381.0,281471.0
221086.0,313568.0,178399.0,281500.0
221034.0,313460.0,178414.0,281574.0
220956.0,313368.0,178415.0,281586.0
220925.0,313309.0,178422.0,281590.0
220936.0,313258.0,178454.0,281605.0
220885.0,313163.0,178461.0,281611.0
220853.0,313157.0,178450.0,281685.0
220809.0,313073.0,178452.0,281688.0
220798.0,312999.0,178509.0,281755.0
220739.0,312958.0,178501.0,281728.0
220762.0,312922.0,178472.0,281709.0
220729.0,312865.0,178446.0,281697.0
220695.0,312804.0,178422.0,281622.0
220656.0,312750.0,178337.0,281578.0
220638.0,312687.0,178356.0,281549.0
220611.0,312607.0,178370.0,281605.0
220596.0,312555.0,178359.0,281585.0
220554.0,312530.0,178313.0,281514.0
220527.0,312468.0,178278.0,281497.0
220502.0,312437.0,178241.0,281375.0
220473.0,312280.0,178217.0,281312.0
220435.0,312238.0,178152.0,281263.0
220424.0,312099.0,178116.0,281218.0
220375.0,311976.0,178104.0,281151.0
220360.0,311921.0,178014.0,281033.0
220254.0,311845.0,178002.0,281007.0
220238.0,311687.0,177971.0,280959.0
220139.0,311622.0,177931.0,280920.0
220123.0,311538.0,177925.0,280885.0
220044.0,311424.0,177978.0,280879.0
220011.0,311405.0,177923.0,280856.0
220002.0,311289.0,177916.0,280821.0
219961.0,311211.0,177889.0,280813.0
219924.0,311182.0,177894.0,280850.0
219890.0,311134.0,177841.0,280829.0
219898.0,311136.0,177840.0,280806.0
219850.0,311067.0,177853.0,280818.0
219812.0,311052.0,177828.0,280753.0
219810.0,311009.0,177848.0,280757.0
219823.0,311064.0,177827.0,280766.0
219815.0,311102.0,177827.0,280836.0
219849.0,311164.0,177874.0,280840.0
219860.0,311177.0,177895.0,280867.0
219910.0,311216.0,177898.0,280904.0
219868.0,311251.0,177908.0,280928.0
219927.0,311250.0,177871.0,280934.0
219919.0,311336.0,177895.0,280959.0
219945.0,311338.0,177917.0,281030.0
219943.0,311346.0,177945.0,281044.0
219924.0,311412.0,177931.0,281049.0
219940.0,311352.0,177934.0,281066.0
219943.0,311322.0,177929.0,281088.0
219925.0,311372.0,177945.0,281065.0
219930.0,311387.0,177941.0,281041.0
219944.0,311323.0,177963.0,281101.0
219954.0,311319.0,178007.0,281136.0
219934.0,311341.0,177972.0,281178.0
219953.0,311362.0,177950.0,281179.0
219919.0,311332.0,177947.0,281164.0
219938.0,311353.0,177964.0,281196.0
219939.0,311377.0,177977.0,281196.0
219946.0,311297.0,177964.0,281207.0
219908.0,311318.0,177952.0,281195.0
219901.0,311307.0,177935.0,281192.0
219907.0,311256.0,177940.0,281207.0
219896.0,311286.0,177929.0,281143.0
219929.0,311270.0,177909.0,281138.0
219917.0,311302.0,177915.0,281175.0
219911.0,311436.0,177933.0,281126.0
219933.0,311340.0,177926.0,281141.0
219982.0,311367.0,177903.0,281145.0
220005.0,311365.0,177882.0,281132.0
219989.0,311396.0,177921.0,281179.0
220001.0,311425.0,177913.0,281157.0
220041.0,311471.0,177881.0,281148.0
220041.0,311448.0,177887.0,281129.0
220063.0,311491.0,177862.0,281144.0
220088.0,311522.0,177860.0,281064.0
220108.0,311522.0,177832.0,281105.0
220163.0,311550.0,177834.0,281067.0
220133.0,311571.0,177864.0,281109.0
220169.0,311623.0,177883.0,281150.0
220223.0,311643.0,177881.0,281164.0
220245.0,311682.0,177886.0,281128.0
220245.0,311730.0,177870.0,281073.0
220282.0,311722.0,177846.0,281097.0
220282.0,311709.0,177856.0,280968.0
220315.0,311696.0,177876.0,281021.0
220305.0,311718.0,177885.0,281009.0
220314.0,311694.0,177933.0,281001.0
220300.0,311702.0,177911.0,280999.0
220293.0,311722.0,177932.0,280936.0
220294.0,311693.0,177916.0,280881.0
220295.0,311720.0,177950.0,280912.0
220323.0,311775.0,177984.0,280957.0
220311.0,311768.0,178089.0,281032.0
220291.0,311722.0,178117.0,281095.0
220266.0,311720.0,178162.0,281195.0
220257.0,311645.0,178187.0,281264.0
220220.0,311615.0,178206.0,281254.0
220199.0,311572.0,178234.0,281301.0
220169.0,311495.0,178208.0,281216.0
220125.0,311483.0,178212.0,281241.0
220131.0,311447.0,178200.0,281253.0
220085.0,311380.0,178211.0,281315.0
220031.0,311298.0,178234.0,281356.0
220028.0,311249.0,178202.0,281368.0
219987.0,311142.0,178227.0,281385.0
219893.0,311012.0,178241.0,281418.0
219853.0,310861.0,178205.0,281453.0
219769.0,310766.0,178230.0,281468.0
219717.0,310580.0,178225.0,281522.0
219640.0,310430.0,178229.0,281527.0
219552.0,310264.0,178230.0,281597.0
219492.0,310118.0,178201.0,281560.0
219411.0,309997.0,178159.0,281563.0
219323.0,309899.0,178161.0,281525.0
219286.0,309775.0,178147.0,281515.0
219266.0,309614.0,178095.0,281462.0
219187.0,309548.0,178061.0,281432.0
219113.0,309446.0,178089.0,281422.0
219105.0,309384.0,178055.0,281425.0
219028.0,309271.0,178058.0,281376.0
219012.0,309170.0,178007.0,281369.0
218967.0,309151.0,177977.0,281264.0
218933.0,309031.0,177937.0,281245.0
218885.0,308985.0,177898.0,281191.0
218875.0,308947.0,177875.0,281135.0
218861.0,308925.0,177859.0,281066.0
218832.0,308845.0,177840.0,281051.0
218802.0,308824.0,177827.0,281017.0
218773.0,308771.0,177810.0,280996.0
218752.0,308702.0,177796.0,280962.0
218757.0,308662.0,177758.0,280952.0
218707.0,308587.0,177761.0,280904.0
218644.0,308474.0,177673.0,280821.0
218604.0,308377.0,177634.0,280735.0
218550.0,308268.0,177607.0,280710.0
218550.0,308255.0,177591.0,280739.0
218505.0,308203.0,177597.0,280741.0
218461.0,308134.0,177627.0,280763.0
218442.0,308072.0,177617.0,280827.0
218389.0,307973.0,177641.0,280902.0
218402.0,307919.0,177646.0,280901.0
218339.0,307792.0,177679.0,280911.0
218313.0,307759.0,177689.0,280917.0
218251.0,307668.0,177667.0,280927.0
218225.0,307508.0,177664.0,280888.0
218121.0,307398.0,177648.0,280893.0
218069.0,307263.0,177641.0,280880.0
218001.0,307141.0,177620.0,280853.0
217911.0,306980.0,177595.0,280842.0
217849.0,306802.0,177630.0,280864.0
217782.0,306662.0,177599.0,280811.0
217709.0,306514.0,177593.0,280857.0
217636.0,306379.0,177603.0,280903.0
217552.0,306294.0,177589.0,280873.0
217508.0,306167.0,177589.0,280860.0
217485.0,306141.0,177559.0,280799.0
217430.0,306072.0,177567.0,280818.0
217403.0,306018.0,177529.0,280763.0
217394.0,306011.0,177523.0,280721.0
217361.0,305911.0,177504.0,280744.0
217354.0,305869.0,177523.0,280738.0
217325.0,305873.0,177488.0,280706.0
217279.0,305847.0,177467.0,280681.0
217262.0,305776.0,177427.0,280664.0
217282.0,305719.0,177420.0,280658.0
217241.0,305694.0,177392.0,280595.0
217192.0,305685.0,177348.0,280507.0
217215.0,305607.0,177303.0,280451.0
217192.0,305597.0,177247.0,280373.0
217168.0,305513.0,177202.0,280312.0
217123.0,305487.0,177147.0,280226.0
217141.0,305456.0,177116.0,280175.0
217105.0,305343.0,177042.0,280080.0
217084.0,305308.0,176993.0,280006.0
217060.0,305285.0,176912.0,279927.0
217033.0,305242.0,176891.0,279852.0
217002.0,305161.0,176848.0,279762.0
217012.0,305160.0,176774.0,279678.0
217001.0,305135.0,176736.0,279644.0
216951.0,305087.0,176728.0,279557.0
216962.0,305089.0,176722.0,279560.0
216989.0,305073.0,176720.0,279544.0
216964.0,305084.0,176711.0,279566.0
216952.0,305045.0,176686.0,279548.0
216940.0,305076.0,176705.0,279564.0
216970.0,305043.0,176724.0,279542.0
216936.0,305040.0,176688.0,279529.0
216942.0,305000.0,176658.0,279506.0
216922.0,304999.0,176621.0,279441.0
216913.0,304965.0,176605.0,279455.0
216912.0,304953.0,176599.0,279410.0
216898.0,304935.0,176578.0,279362.0
216921.0,304933.0,176564.0,279375.0
216877.0,304920.0,176552.0,279383.0
216907.0,304872.0,176545.0,279419.0
216862.0,304860.0,176567.0,279414.0
216852.0,304838.0,176570.0,279407.0
216851.0,304826.0,176517.0,279322.0
216845.0,304799.0,176486.0,279312.0
216820.0,304790.0,176566.0,279407.0
216781.0,304710.0,176594.0,279497.0
216753.0,304705.0,176673.0,279578.0
216789.0,304610.0,176662.0,279579.0
216739.0,304596.0,176622.0,279523.0
216716.0,304520.0,176621.0,279520.0
216681.0,304468.0,176578.0,279490.0
216639.0,304408.0,176534.0,279429.0
216639.0,304301.0,176521.0,279373.0
216590.0,304199.0,176483.0,279279.0
216548.0,304130.0,176403.0,279212.0
216486.0,304008.0,176438.0,279200.0
216460.0,303891.0,176405.0,279173.0
216407.0,303792.0,176381.0,279072.0
216332.0,303736.0,176375.0,279064.0
216314.0,303659.0,176325.0,279024.0
216261.0,303591.0,176293.0,278930.0
216217.0,303509.0,176258.0,278912.0
216230.0,303444.0,176255.0,278852.0
216153.0,303404.0,176188.0,278791.0
216139.0,303363.0,176124.0,278658.0
216079.0,303245.0,176098.0,278571.0
216070.0,303209.0,176039.0,278518.0
216036.0,303157.0,176031.0,278534.0
216007.0,303086.0,176030.0,278455.0
215939.0,302999.0,176016.0,278541.0
215914.0,302922.0,176057.0,278560.0
215843.0,302868.0,176066.0,278645.0
215802.0,302771.0,176092.0,278658.0
215774.0,302653.0,176105.0,278703.0
215715.0,302577.0,176098.0,278709.0
215657.0,302534.0,176115.0,278718.0
215620.0,302439.0,176118.0,278748.0
215604.0,302359.0,176134.0,278799.0
215552.0,302270.0,176118.0,278790.0
215537.0,302231.0,176130.0,278787.0
215482.0,302168.0,176091.0,278754.0
215476.0,302104.0,176086.0,278701.0
215445.0,302055.0,176051.0,278682.0
215448.0,302039.0,176021.0,278610.0
215421.0,301969.0,176011.0,278610.0
215375.0,301926.0,176012.0,278616.0
215356.0,301877.0,175994.0,278573.0
215341.0,301837.0,175976.0,278520.0
215288.0,301807.0,175962.0,278541.0
215273.0,301748.0,175945.0,278533.0
215267.0,301675.0,175924.0,278534.0
215251.0,301634.0,175919.0,278480.0
215226.0,301595.0,175905.0,278460.0
215198.0,301567.0,175895.0,278486.0
215155.0,301532.0,175917.0,278503.0
215124.0,301457.0,175886.0,278500.0
215124.0,301430.0,175933.0,278505.0
215112.0,301406.0,175915.0,278504.0
215105.0,301386.0,175915.0,278513.0
215103.0,301438.0,175917.0,278507.0
215110.0,301410.0,175927.0,278542.0
215123.0,301435.0,175927.0,278516.0
215134.0,301447.0,175946.0,278639.0
215129.0,301468.0,175975.0,278704.0
215089.0,301414.0,175998.0,278677.0
215104.0,301371.0,176020.0,278687.0
215093.0,301360.0,175978.0,278729.0
215094.0,301337.0,175928.0,278669.0
215067.0,301326.0,175922.0,278660.0
215054.0,301353.0,175917.0,278579.0
215071.0,301310.0,175926.0,278636.0
215078.0,301333.0,175872.0,278604.0
215032.0,301334.0,175920.0,278681.0
215012.0,301316.0,175970.0,278752.0
215047.0,301287.0,176015.0,278830.0
215055.0,301255.0,176046.0,278851.0
215017.0,301207.0,176031.0,278854.0
215019.0,301148.0,176083.0,278866.0
214952.0,301095.0,176051.0,278859.0
214919.0,301027.0,176021.0,278800.0
214885.0,300915.0,176006.0,278759.0
214845.0,300885.0,175928.0,278726.0
214794.0,300779.0,175886.0,278659.0
214766.0,300688.0,175883.0,278529.0
214711.0,300585.0,175828.0,278531.0
214668.0,300495.0,175818.0,278506.0
214629.0,300460.0,175813.0,278466.0
214621.0,300357.0,175819.0,278472.0
214576.0,300315.0,175798.0,278424.0
214530.0,300268.0,175790.0,278420.0
214506.0,300251.0,175762.0,278396.0
214502.0,300201.0,175751.0,278343.0
214507.0,300161.0,175788.0,278418.0
214496.0,300133.0,175762.0,278415.0
214428.0,300056.0,175731.0,278393.0
214454.0,300061.0,175725.0,278313.0
214391.0,300065.0,175719.0,278333.0
214415.0,300030.0,175699.0,278358.0
214440.0,300052.0,175690.0,278308.0
214424.0,299999.0,175677.0,278303.0
214432.0,300019.0,175697.0,278312.0
214460.0,300052.0,175654.0,278309.0
214452.0,300101.0,175659.0,278322.0
214493.0,300157.0,175673.0,278291.0
214513.0,300233.0,175655.0,278255.0
214562.0,300268.0,175633.0,278296.0
214606.0,300296.0,175655.0,278268.0
214624.0,300373.0,175689.0,278327.0
214619.0,300419.0,175666.0,278346.0
214677.0,300494.0,175654.0,278315.0
214663.0,300516.0,175642.0,278274.0
214705.0,300486.0,175589.0,278203.0
214666.0,300541.0,175605.0,278180.0
214682.0,300479.0,175522.0,278106.0
214691.0,300508.0,175533.0,278066.0
214653.0,300445.0,175524.0,278043.0
214637.0,300404.0,175495.0,278067.0
214619.0,300370.0,175502.0,277996.0
214579.0,300306.0,175493.0,278005.0
214525.0,300295.0,175481.0,277997.0
214545.0,300262.0,175449.0,278002.0
214551.0,300234.0,175491.0,278046.0
214543.0,300280.0,175486.0,278035.0
214590.0,300302.0,175475.0,278043.0
214601.0,300317.0,175451.0,278059.0
214602.0,300398.0,175492.0,278075.0
214666.0,300467.0,175500.0,278053.0
214689.0,300500.0,175509.0,278098.0
214711.0,300556.0,175525.0,278107.0
214750.0,300634.0,175550.0,278130.0
214807.0,300718.0,175544.0,278144.0
214827.0,300790.0,175517.0,278153.0
214862.0,300874.0,175508.0,278094.0
214910.0,300969.0,175472.0,278070.0
214934.0,300962.0,175445.0,277992.0
214953.0,301066.0,175454.0,278012.0
214969.0,301054.0,175451.0,278011.0
214997.0,301054.0,175425.0,278027.0
215012.0,301096.0,175452.0,278015.0
215024.0,301109.0,175451.0,278029.0
215016.0,301141.0,175461.0,278007.0
215081.0,301166.0,175448.0,277976.0
215033.0,301179.0,175424.0,277989.0
215065.0,301168.0,175396.0,277944.0
215069.0,301157.0,175388.0,277933.0
215070.0,301177.0,175383.0,277915.0
215093.0,301237.0,175359.0,277918.0
215067.0,301148.0,175369.0,277934.0
215083.0,301218.0,175377.0,277972.0
215112.0,301102.0,175416.0,277993.0
215092.0,301158.0,175420.0,278000.0
215077.0,301113.0,175431.0,278031.0
215078.0,301088.0,175432.0,278021.0
215070.0,301029.0,175419.0,277978.0
215016.0,300977.0,175382.0,277907.0
214980.0,300982.0,175361.0,277865.0
214994.0,300937.0,175306.0,277782.0
214977.0,300895.0,175287.0,277766.0
214978.0,300888.0,175261.0,277740.0
214923.0,300859.0,175259.0,277720.0
214934.0,300790.0,175256.0,277744.0
214923.0,300796.0,175245.0,277776.0
214886.0,300747.0,175281.0,277746.0
214879.0,300750.0,175303.0,277782.0
214857.0,300708.0,175262.0,277819.0
214863.0,300708.0,175260.0,277760.0
214844.0,300720.0,175244.0,277731.0
214863.0,300698.0,175262.0,277746.0
214823.0,300732.0,175258.0,277759.0
214824.0,300724.0,175286.0,277772.0
214849.0,300709.0,175264.0,277753.0
214849.0,300726.0,175254.0,277778.0
214877.0,300754.0,175298.0,277830.0
214846.0,300770.0,175328.0,277902.0
214905.0,300809.0,175358.0,277941.0
214917.0,300775.0,175371.0,278006.0
214917.0,300863.0,175411.0,278033.0
214949.0,300906.0,175354.0,277991.0
214968.0,300978.0,175324.0,277953.0
215005.0,300958.0,175331.0,277924.0
215004.0,300991.0,175330.0,277904.0
215013.0,300990.0,175298.0,277865.0
215021.0,300985.0,175273.0,277819.0
215031.0,301026.0,175237.0,277792.0
215029.0,301024.0,175228.0,277740.0
215066.0,301015.0,175223.0,277747.0
215025.0,301049.0,175189.0,277692.0
215049.0,301024.0,175195.0,277699.0
215056.0,301029.0,175180.0,277717.0
215059.0,301033.0,175204.0,277727.0
215055.0,301053.0,175149.0,277710.0
215052.0,301066.0,175188.0,277721.0
215073.0,301072.0,175145.0,277721.0
215088.0,301117.0,175172.0,277745.0
215090.0,301111.0,175195.0,277773.0
215157.0,301158.0,175223.0,277819.0
215142.0,301211.0,175251.0,277892.0
215140.0,301233.0,175283.0,277935.0
215206.0,301276.0,175318.0,277998.0
215189.0,301321.0,175320.0,278055.0
215221.0,301367.0,175307.0,278040.0
215265.0,301413.0,175314.0,278043.0
215270.0,301457.0,175309.0,277990.0
215308.0,301524.0,175298.0,278002.0
215318.0,301583.0,175286.0,277966.0
215360.0,301611.0,175268.0,278000.0
215386.0,301694.0,175269.0,277965.0
215430.0,301721.0,175299.0,278010.0
215436.0,301750.0,175316.0,278044.0
215512.0,301813.0,175329.0,278016.0
215477.0,301881.0,175337.0,278017.0
215529.0,301891.0,175295.0,278021.0
215541.0,301906.0,175276.0,278038.0
215540.0,301915.0,175264.0,278046.0
215570.0,302011.0,175283.0,278023.0
215553.0,302026.0,175261.0,278011.0
215615.0,302051.0,175243.0,277977.0
215633.0,302051.0,175243.0,277986.0
215614.0,302108.0,175254.0,277990.0
215661.0,302122.0,175267.0,278030.0
215681.0,302115.0,175269.0,277990.0
215718.0,302148.0,175262.0,277997.0
215675.0,302137.0,175249.0,277980.0
215708.0,302160.0,175221.0,278017.0
215694.0,302144.0,175267.0,277967.0
215732.0,302131.0,175258.0,278001.0
215693.0,302100.0,175264.0,278049.0
215721.0,302063.0,175299.0,278068.0
215687.0,302032.0,175263.0,278078.0
215661.0,302014.0,175250.0,278023.0
215624.0,301951.0,175259.0,278013.0
215616.0,301980.0,175251.0,277994.0
215614.0,301932.0,175244.0,277963.0
215565.0,301900.0,175256.0,277943.0
215598.0,301872.0,175259.0,277989.0
215578.0,301868.0,175268.0,278039.0
215589.0,301892.0,175257.0,278048.0
215579.0,301897.0,175264.0,278042.0
215586.0,301852.0,175232.0,278002.0
215590.0,301899.0,175240.0,277995.0
215592.0,301865.0,175206.0,277974.0
215589.0,301907.0,175161.0,277846.0
215597.0,301880.0,175124.0,277828.0
215609.0,301901.0,175112.0,277823.0
215619.0,301949.0,175109.0,277852.0
215634.0,302010.0,175127.0,277860.0
215648.0,302008.0,175112.0,277841.0
215689.0,302020.0,175128.0,277812.0
215686.0,302058.0,175105.0,277824.0
215686.0,302046.0,175074.0,277762.0
215673.0,302114.0,175061.0,277762.0
215680.0,302127.0,175034.0,277739.0
215689.0,302120.0,175030.0,277756.0
215734.0,302157.0,175033.0,277741.0
215741.0,302152.0,175072.0,277763.0
215768.0,302152.0,175055.0,277799.0
215766.0,302226.0,175075.0,277808.0
215790.0,302240.0,175079.0,277837.0
215814.0,302262.0,175108.0,277843.0
215807.0,302328.0,175115.0,277874.0
215839.0,302332.0,175115.0,277909.0
215866.0,302372.0,175116.0,277905.0
215890.0,302399.0,175135.0,277958.0
215908.0,302422.0,175130.0,277947.0
215911.0,302452.0,175131.0,277934.0
215915.0,302498.0,175116.0,277929.0
