207116.0,306603.0,170153.0,270881.0
207063.0,306524.0,170126.0,270821.0
207043.0,306475.0,170090.0,270738.0
207020.0,306417.0,170032.0,270704.0
206957.0,306297.0,169995.0,270614.0
206940.0,306254.0,169938.0,270549.0
206859.0,306136.0,169899.0,270530.0
206822.0,306009.0,169846.0,270410.0
206788.0,305937.0,169830.0,270382.0
206766.0,305839.0,169844.0,270397.0
206709.0,305783.0,169801.0,270393.0
206688.0,305759.0,169835.0,270373.0
206685.0,305755.0,169776.0,270381.0
206654.0,305706.0,169790.0,270332.0
206644.0,305688.0,169761.0,270317.0
206624.0,305651.0,169735.0,270328.0
206587.0,305578.0,169695.0,270224.0
206544.0,305494.0,169681.0,270255.0
206543.0,305484.0,169651.0,270216.0
206524.0,305457.0,169608.0,270225.0
206512.0,305420.0,169640.0,270199.0
206487.0,305447.0,169672.0,270219.0
206472.0,305389.0,169657.0,270239.0
206465.0,305417.0,169660.0,270257.0
206485.0,305394.0,169642.0,270197.0
206478.0,305431.0,169616.0,270179.0
206484.0,305416.0,169607.0,270180.0
206454.0,305378.0,169611.0,270158.0
206454.0,305382.0,169568.0,270150.0
206449.0,305371.0,169554.0,270148.0
206427.0,305353.0,169555.0,270169.0
206433.0,305354.0,169544.0,270126.0
206433.0,305367.0,169541.0,270126.0
206425.0,305343.0,169504.0,270170.0
206414.0,305315.0,169520.0,270110.0
206429.0,305310.0,169515.0,270081.0
206406.0,305308.0,169485.0,270101.0
206393.0,305207.0,169503.0,270046.0
206381.0,305110.0,169465.0,270076.0
206325.0,305023.0,169464.0,270071.0
206270.0,304938.0,169456.0,270002.0
206214.0,304810.0,169442.0,269985.0
206182.0,304657.0,169443.0,269967.0
206109.0,304571.0,169420.0,269937.0
206020.0,304442.0,169387.0,269903.0
205993.0,304334.0,169388.0,269884.0
205932.0,304238.0,169337.0,269829.0
205876.0,304115.0,169349.0,269853.0
205833.0,304047.0,169340.0,269791.0
205756.0,303962.0,169304.0,269801.0
205730.0,303801.0,169284.0,269775.0
205676.0,303764.0,169279.0,269763.0
205625.0,303694.0,169309.0,269728.0
205572.0,303630.0,169287.0,269750.0
205556.0,303573.0,169288.0,269734.0
205532.0,303540.0,169263.0,269722.0
205500.0,303500.0,169258.0,269691.0
205474.0,303417.0,169228.0,269695.0
205430.0,303394.0,169225.0,269682.0
205415.0,303398.0,169203.0,269631.0
205410.0,303307.0,169206.0,269633.0
205378.0,303336.0,169222.0,269667.0
205407.0,303338.0,169208.0,269661.0
205380.0,303300.0,169207.0,269623.0
205366.0,303265.0,169175.0,269663.0
205370.0,303272.0,169136.0,269623.0
205331.0,303256.0,169145.0,269636.0
205328.0,303226.0,169175.0,269651.0
205339.0,303196.0,169145.0,269609.0
205283.0,303149.0,169177.0,269596.0
205285.0,303125.0,169115.0,269590.0
205262.0,303101.0,169121.0,269612.0
205274.0,303095.0,169132.0,269588.0
205269.0,303079.0,169110.0,269579.0
205204.0,303053.0,169081.0,269578.0
205220.0,303002.0,169095.0,269569.0
205178.0,303001.0,169066.0,269574.0
205173.0,302970.0,169061.0,269535.0
205167.0,302942.0,169070.0,269564.0
205123.0,302924.0,169042.0,269532.0
205118.0,302888.0,169067.0,269576.0
205117.0,302873.0,169056.0,269541.0
205112.0,302851.0,169050.0,269516.0
205120.0,302825.0,169047.0,269539.0
205082.0,302838.0,169028.0,269512.0
205092.0,302852.0,169031.0,269561.0
205077.0,302831.0,169007.0,269515.0
205077.0,302901.0,169014.0,269554.0
205091.0,302844.0,169046.0,269520.0
205077.0,302835.0,169043.0,269567.0
205101.0,302873.0,169063.0,269557.0
205115.0,302888.0,169028.0,269562.0
205090.0,302874.0,169032.0,269590.0
205088.0,302911.0,169027.0,269563.0
205080.0,302930.0,169004.0,269562.0
205084.0,302881.0,168985.0,269555.0
205095.0,302919.0,168984.0,269544.0
205089.0,302918.0,169000.0,269599.0
205074.0,302947.0,168984.0,269553.0
205110.0,302921.0,168966.0,269576.0
205122.0,302925.0,168974.0,269540.0
205111.0,302914.0,168956.0,269507.0
205085.0,302909.0,168910.0,269505.0
205082.0,302897.0,168916.0,269512.0
205059.0,302875.0,168929.0,269486.0
205060.0,302862.0,168913.0,269516.0
205052.0,302875.0,168900.0,269465.0
205067.0,302824.0,168924.0,269471.0
205062.0,302862.0,168889.0,269523.0
205090.0,302836.0,168879.0,269488.0
205083.0,302900.0,168889.0,269490.0
205089.0,302901.0,168886.0,269460.0
205104.0,302908.0,168896.0,269463.0
205110.0,302890.0,168881.0,269467.0
205072.0,302885.0,168869.0,269493.0
205067.0,302879.0,168881.0,269483.0
205068.0,302819.0,168860.0,269454.0
205046.0,302775.0,168839.0,269406.0
204993.0,302698.0,168866.0,269427.0
204962.0,302597.0,168840.0,269417.0
204936.0,302466.0,168843.0,269431.0
204895.0,302407.0,168835.0,269380.0
204791.0,302283.0,168836.0,269368.0
204758.0,302142.0,168819.0,269345.0
204722.0,302036.0,168806.0,269356.0
204659.0,301956.0,168812.0,269328.0
204619.0,301907.0,168820.0,269334.0
204560.0,301813.0,168840.0,269351.0
204506.0,301721.0,168796.0,269309.0
204507.0,301665.0,168816.0,269310.0
204437.0,301624.0,168824.0,269331.0
204401.0,301609.0,168789.0,269314.0
204376.0,301562.0,168809.0,269316.0
204352.0,301535.0,168773.0,269311.0
204330.0,301493.0,168771.0,269287.0
204305.0,301405.0,168780.0,269248.0
204273.0,301366.0,168764.0,269301.0
204233.0,301366.0,168748.0,269258.0
204264.0,301328.0,168791.0,269284.0
204235.0,301314.0,168784.0,269278.0
204202.0,301332.0,168783.0,269284.0
204232.0,301356.0,168755.0,269303.0
204188.0,301305.0,168743.0,269295.0
204221.0,301318.0,168750.0,269274.0
204196.0,301318.0,168777.0,269257.0
204205.0,301291.0,168727.0,269283.0
204203.0,301307.0,168764.0,269272.0
204191.0,301335.0,168738.0,269284.0
204179.0,301315.0,168768.0,269296.0
204188.0,301323.0,168785.0,269354.0
204200.0,301342.0,168780.0,269324.0
204182.0,301327.0,168781.0,269326.0
204196.0,301341.0,168783.0,269337.0
204208.0,301331.0,168788.0,269329.0
204188.0,301301.0,168776.0,269356.0
204193.0,301309.0,168767.0,269329.0
204166.0,301347.0,168804.0,269316.0
204188.0,301337.0,168796.0,269348.0
204176.0,301353.0,168825.0,269329.0
204192.0,301362.0,168818.0,269404.0
204197.0,301402.0,168844.0,269412.0
204239.0,301419.0,168854.0,269389.0
204192.0,301430.0,168855.0,269425.0
204241.0,301492.0,168844.0,269429.0
204270.0,301514.0,168844.0,269468.0
204273.0,301552.0,168881.0,269466.0
204280.0,301594.0,168916.0,269469.0
204305.0,301611.0,168904.0,269506.0
204315.0,301669.0,168894.0,269551.0
204348.0,301729.0,168923.0,269558.0
204375.0,301799.0,168958.0,269575.0
204397.0,301831.0,168970.0,269560.0
204483.0,301932.0,168975.0,269584.0
204506.0,301945.0,169007.0,269584.0
204506.0,302032.0,168993.0,269597.0
204553.0,302087.0,169014.0,269629.0
204582.0,302139.0,169022.0,269638.0
204609.0,302198.0,169035.0,269655.0
204642.0,302268.0,169043.0,269645.0
204657.0,302321.0,169085.0,269672.0
204698.0,302390.0,169050.0,269726.0
204732.0,302455.0,169115.0,269719.0
204798.0,302528.0,169085.0,269734.0
204843.0,302572.0,169113.0,269744.0
204858.0,302640.0,169105.0,269767.0
204875.0,302762.0,169092.0,269783.0
204938.0,302787.0,169127.0,269763.0
204953.0,302824.0,169129.0,269741.0
204987.0,302901.0,169129.0,269760.0
205024.0,302948.0,169181.0,269788.0
205046.0,303000.0,169149.0,269743.0
205061.0,303040.0,169131.0,269747.0
205103.0,303112.0,169150.0,269790.0
205126.0,303187.0,169146.0,269794.0
205147.0,303194.0,169174.0,269827.0
205195.0,303231.0,169187.0,269831.0
205193.0,303220.0,169192.0,269867.0
205207.0,303228.0,169209.0,269841.0
205229.0,303221.0,169212.0,269807.0
205191.0,303185.0,169179.0,269801.0
205197.0,303161.0,169174.0,269759.0
205167.0,303109.0,169199.0,269767.0
205130.0,303097.0,169208.0,269812.0
205142.0,303039.0,169211.0,269810.0
205116.0,303013.0,169222.0,269796.0
205105.0,302996.0,169241.0,269824.0
205020.0,302989.0,169257.0,269789.0
205053.0,302953.0,169219.0,269752.0
205057.0,302980.0,169244.0,269764.0
205056.0,302965.0,169239.0,269790.0
205063.0,302975.0,169254.0,269804.0
205054.0,302992.0,169226.0,269750.0
205069.0,303024.0,169248.0,269732.0
205060.0,303045.0,169223.0,269781.0
205049.0,303047.0,169247.0,269734.0
205079.0,303076.0,169285.0,269759.0
205100.0,303125.0,169252.0,269784.0
205124.0,303188.0,169291.0,269807.0
205146.0,303238.0,169323.0,269847.0
205175.0,303304.0,169309.0,269833.0
205194.0,303348.0,169308.0,269876.0
205214.0,303364.0,169314.0,269869.0
205222.0,303419.0,169310.0,269866.0
205280.0,303413.0,169307.0,269866.0
205276.0,303524.0,169329.0,269862.0
205254.0,303504.0,169344.0,269917.0
205285.0,303597.0,169397.0,269936.0
205330.0,303610.0,169472.0,270039.0
205353.0,303655.0,169580.0,270226.0
205380.0,303784.0,169678.0,270420.0
205433.0,303860.0,169823.0,270637.0
205437.0,303954.0,169960.0,270857.0
205490.0,304087.0,170094.0,271036.0
205510.0,304175.0,170174.0,271138.0
205516.0,304281.0,170250.0,271218.0
205564.0,304364.0,170270.0,271251.0
205606.0,304467.0,170283.0,271230.0
205618.0,304490.0,170300.0,271293.0
205660.0,304560.0,170296.0,271257.0
205658.0,304652.0,170288.0,271267.0
205722.0,304713.0,170287.0,271262.0
205782.0,304801.0,170280.0,271242.0
205808.0,304872.0,170259.0,271195.0
205840.0,304948.0,170285.0,271157.0
205858.0,305009.0,170241.0,271133.0
205939.0,305100.0,170209.0,271082.0
205967.0,305104.0,170178.0,270990.0
206017.0,305134.0,170128.0,270936.0
206039.0,305190.0,170075.0,270854.0
206011.0,305194.0,170007.0,270777.0
206043.0,305216.0,169977.0,270715.0
206094.0,305201.0,169942.0,270669.0
206075.0,305237.0,169891.0,270603.0
206084.0,305240.0,169862.0,270563.0
206105.0,305246.0,169893.0,270590.0
206134.0,305288.0,169912.0,270660.0
206109.0,305325.0,169986.0,270707.0
206206.0,305384.0,169956.0,270705.0
206202.0,305436.0,169994.0,270731.0
206232.0,305465.0,170048.0,270777.0
206236.0,305559.0,170013.0,270761.0
206280.0,305614.0,170010.0,270787.0
206338.0,305716.0,170060.0,270842.0
206388.0,305792.0,170097.0,270883.0
206388.0,305879.0,170183.0,271011.0
206433.0,305999.0,170316.0,271253.0
206475.0,306108.0,170466.0,271434.0
206500.0,306195.0,170562.0,271608.0
206544.0,306319.0,170661.0,271749.0
206605.0,306472.0,170840.0,272038.0
206672.0,306637.0,170950.0,272123.0
206709.0,306744.0,171032.0,272215.0
206771.0,306875.0,171099.0,272316.0
206849.0,307087.0,171199.0,272401.0
206904.0,307210.0,171213.0,272425.0
206986.0,307272.0,171211.0,272378.0
207024.0,307332.0,171195.0,272355.0
207043.0,307387.0,171194.0,272314.0
207067.0,307400.0,171151.0,272242.0
207079.0,307335.0,171088.0,272134.0
207100.0,307306.0,171031.0,272080.0
207071.0,307264.0,170982.0,271950.0
207051.0,307195.0,170961.0,271910.0
207034.0,307106.0,170908.0,271869.0
207036.0,307098.0,170918.0,271893.0
207007.0,307076.0,170888.0,271870.0
206977.0,307051.0,170883.0,271833.0
206982.0,307039.0,170865.0,271821.0
206951.0,306989.0,170854.0,271764.0
206940.0,306954.0,170806.0,271703.0
206956.0,306942.0,170763.0,271673.0
206925.0,306946.0,170754.0,271692.0
206927.0,306954.0,170789.0,271680.0
206934.0,306984.0,170799.0,271740.0
206957.0,306975.0,170830.0,271773.0
206987.0,307023.0,170867.0,271821.0
206980.0,307060.0,170874.0,271807.0
207001.0,307110.0,170866.0,271824.0
207009.0,307117.0,170883.0,271859.0
207020.0,307159.0,170903.0,271894.0
207053.0,307237.0,170956.0,271889.0
207063.0,307326.0,170956.0,271922.0
207074.0,307332.0,170945.0,271956.0
207109.0,307360.0,170951.0,271930.0
207129.0,307392.0,170948.0,271872.0
207105.0,307443.0,170962.0,271908.0
207144.0,307466.0,170998.0,272009.0
207166.0,307471.0,171025.0,272066.0
207149.0,307538.0,171056.0,272067.0
207162.0,307552.0,171083.0,272095.0
207166.0,307624.0,171083.0,272061.0
207196.0,307635.0,171071.0,272054.0
207221.0,307674.0,171062.0,272045.0
207235.0,307696.0,171035.0,271981.0
207264.0,307718.0,171012.0,271986.0
207282.0,307768.0,170975.0,271861.0
207304.0,307751.0,170923.0,271833.0
207290.0,307773.0,170887.0,271780.0
207322.0,307830.0,170863.0,271785.0
207307.0,307808.0,170864.0,271761.0
207342.0,307802.0,170851.0,271718.0
207313.0,307812.0,170861.0,271700.0
207364.0,307864.0,170824.0,271683.0
207381.0,307927.0,170840.0,271694.0
207369.0,307921.0,170801.0,271706.0
207403.0,307940.0,170858.0,271785.0
207434.0,308026.0,170898.0,271788.0
207445.0,308064.0,170925.0,271867.0
207456.0,308156.0,170927.0,271896.0
207499.0,308209.0,170931.0,271928.0
207528.0,308253.0,171015.0,272001.0
207586.0,308388.0,171004.0,271996.0
207622.0,308380.0,170992.0,272023.0
207652.0,308491.0,171011.0,272015.0
207690.0,308515.0,170994.0,271998.0
207709.0,308603.0,171002.0,272012.0
207748.0,308638.0,170960.0,271976.0
207794.0,308687.0,170949.0,271978.0
207804.0,308746.0,170966.0,271967.0
207832.0,308766.0,170962.0,271946.0
207872.0,308811.0,170951.0,271956.0
207923.0,308911.0,170976.0,271973.0
207941.0,308940.0,171036.0,272029.0
207955.0,308993.0,170983.0,272039.0
207954.0,309050.0,171032.0,272042.0
207977.0,309117.0,171015.0,272070.0
208024.0,309159.0,171000.0,272054.0
208046.0,309184.0,170996.0,272038.0
208098.0,309209.0,170980.0,272024.0
208099.0,309265.0,170945.0,272016.0
208124.0,309323.0,170942.0,272002.0
208135.0,309327.0,170931.0,271966.0
208146.0,309371.0,170946.0,272071.0
208164.0,309381.0,171003.0,272062.0
208223.0,309448.0,170999.0,272069.0
208219.0,309478.0,171016.0,272104.0
208263.0,309517.0,171007.0,272096.0
208241.0,309561.0,170971.0,272068.0
208287.0,309574.0,170931.0,272075.0
208262.0,309552.0,170938.0,271978.0
208288.0,309515.0,170889.0,271897.0
208281.0,309426.0,170856.0,271863.0
208255.0,309378.0,170839.0,271822.0
208211.0,309333.0,170811.0,271727.0
208211.0,309263.0,170782.0,271724.0
208149.0,309124.0,170765.0,271682.0
208124.0,309089.0,170734.0,271635.0
208092.0,308980.0,170710.0,271599.0
208069.0,308911.0,170696.0,271585.0
208026.0,308840.0,170688.0,271607.0
207968.0,308775.0,170723.0,271615.0
207913.0,308704.0,170767.0,271635.0
207891.0,308652.0,170756.0,271668.0
207866.0,308689.0,170750.0,271694.0
207848.0,308606.0,170753.0,271647.0
207872.0,308594.0,170740.0,271679.0
207861.0,308544.0,170739.0,271626.0
207855.0,308528.0,170699.0,271549.0
207817.0,308505.0,170662.0,271548.0
207787.0,308492.0,170622.0,271493.0
207791.0,308432.0,170613.0,271509.0
207762.0,308455.0,170646.0,271539.0
207756.0,308436.0,170701.0,271649.0
207723.0,308426.0,170747.0,271718.0
207752.0,308456.0,170806.0,271787.0
207759.0,308496.0,170811.0,271858.0
207781.0,308556.0,170823.0,271829.0
207770.0,308591.0,170837.0,271845.0
207808.0,308576.0,170805.0,271810.0
207787.0,308582.0,170789.0,271800.0
207780.0,308651.0,170779.0,271758.0
207825.0,308655.0,170750.0,271741.0
207821.0,308615.0,170751.0,271696.0
207855.0,308663.0,170724.0,271677.0
207854.0,308658.0,170698.0,271670.0
207846.0,308657.0,170689.0,271582.0
207841.0,308652.0,170641.0,271549.0
207813.0,308641.0,170614.0,271517.0
207817.0,308605.0,170617.0,271521.0
207839.0,308644.0,170668.0,271599.0
207816.0,308613.0,170679.0,271626.0
207823.0,308648.0,170705.0,271688.0
207828.0,308638.0,170701.0,271661.0
207828.0,308665.0,170694.0,271633.0
207847.0,308649.0,170681.0,271664.0
207814.0,308657.0,170652.0,271587.0
207836.0,308660.0,170635.0,271586.0
207810.0,308616.0,170638.0,271573.0
207825.0,308656.0,170594.0,271568.0
207843.0,308633.0,170585.0,271515.0
207823.0,308647.0,170537.0,271512.0
207808.0,308668.0,170496.0,271422.0
207845.0,308646.0,170489.0,271357.0
207832.0,308646.0,170479.0,271350.0
207833.0,308648.0,170421.0,271311.0
207836.0,308642.0,170403.0,271258.0
207834.0,308646.0,170385.0,271246.0
207855.0,308677.0,170382.0,271235.0
207858.0,308691.0,170374.0,271181.0
207857.0,308682.0,170361.0,271186.0
207895.0,308670.0,170327.0,271166.0
207897.0,308664.0,170302.0,271163.0
207904.0,308729.0,170321.0,271100.0
207900.0,308721.0,170283.0,271032.0
207937.0,308706.0,170256.0,271061.0
207960.0,308716.0,170228.0,271084.0
207926.0,308763.0,170261.0,271068.0
207933.0,308760.0,170258.0,270997.0
207951.0,308776.0,170254.0,271037.0
207917.0,308732.0,170214.0,271041.0
207950.0,308780.0,170209.0,271034.0
207960.0,308807.0,170192.0,271039.0
208000.0,308817.0,170231.0,271081.0
208001.0,308812.0,170243.0,271067.0
208007.0,308855.0,170232.0,271066.0
208054.0,308944.0,170240.0,271045.0
208055.0,308942.0,170232.0,271057.0
208051.0,308961.0,170219.0,271035.0
208073.0,308971.0,170219.0,271039.0
208091.0,309018.0,170185.0,271055.0
208071.0,309017.0,170221.0,271050.0
208116.0,309016.0,170205.0,271053.0
208127.0,309039.0,170181.0,271038.0
208118.0,309067.0,170169.0,271041.0
208119.0,309107.0,170204.0,271019.0
208126.0,309069.0,170193.0,270995.0
208116.0,309009.0,170152.0,270999.0
208121.0,308956.0,170151.0,270956.0
208086.0,308862.0,170142.0,271001.0
208051.0,308786.0,170142.0,270961.0
208006.0,308709.0,170133.0,270926.0
207976.0,308609.0,170133.0,270952.0
207917.0,308573.0,170167.0,270922.0
207910.0,308473.0,170115.0,270943.0
207889.0,308403.0,170119.0,270911.0
207847.0,308333.0,170090.0,270943.0
207796.0,308282.0,170133.0,270911.0
207796.0,308204.0,170107.0,270954.0
207751.0,308168.0,170089.0,270908.0
207700.0,308117.0,170101.0,270900.0
207696.0,308080.0,170089.0,270902.0
207660.0,308030.0,170081.0,270834.0
207646.0,307968.0,170031.0,270871.0
207625.0,307931.0,170045.0,270842.0
207583.0,307868.0,170025.0,270811.0
207549.0,307864.0,169999.0,270779.0
207569.0,307839.0,169995.0,270804.0
207528.0,307845.0,169987.0,270755.0
207550.0,307773.0,169998.0,270778.0
207529.0,307786.0,169981.0,270748.0
207538.0,307754.0,169961.0,270745.0
207495.0,307769.0,169933.0,270732.0
207504.0,307726.0,169942.0,270745.0
207485.0,307700.0,169964.0,270739.0
207454.0,307656.0,169932.0,270690.0
207469.0,307661.0,169916.0,270672.0
207445.0,307610.0,169919.0,270659.0
207474.0,307582.0,169877.0,270618.0
207400.0,307548.0,169872.0,270623.0
207389.0,307488.0,169860.0,270597.0
207357.0,307471.0,169840.0,270596.0
207351.0,307427.0,169839.0,270558.0
207345.0,307394.0,169825.0,270599.0
207326.0,307372.0,169802.0,270604.0
207285.0,307341.0,169799.0,270599.0
207257.0,307292.0,169812.0,270616.0
207251.0,307242.0,169816.0,270581.0
207241.0,307218.0,169812.0,270631.0
207203.0,307183.0,169798.0,270556.0
207191.0,307153.0,169788.0,270583.0
207198.0,307195.0,169810.0,270595.0
207198.0,307159.0,169818.0,270584.0
207181.0,307151.0,169818.0,270572.0
207180.0,307172.0,169798.0,270571.0
207178.0,307107.0,169801.0,270542.0
207170.0,307092.0,169778.0,270576.0
207161.0,307084.0,169744.0,270571.0
207178.0,307105.0,169749.0,270564.0
207182.0,307082.0,169760.0,270567.0
207143.0,307087.0,169720.0,270565.0
207136.0,307102.0,169730.0,270557.0
207150.0,307107.0,169733.0,270548.0
207152.0,307054.0,169770.0,270542.0
207174.0,307108.0,169756.0,270575.0
207150.0,307104.0,169754.0,270579.0
