214679.0,309797.0,170797.0,274910.0
214697.0,309808.0,170780.0,274907.0
214708.0,309813.0,170770.0,274926.0
214727.0,309824.0,170798.0,274970.0
214739.0,309858.0,170801.0,275005.0
214794.0,309933.0,170805.0,275062.0
214826.0,309977.0,170874.0,275073.0
214854.0,310035.0,170871.0,275094.0
214877.0,310093.0,170831.0,275124.0
214896.0,310123.0,170845.0,275128.0
214916.0,310161.0,170809.0,275166.0
214952.0,310203.0,170830.0,275124.0
214981.0,310238.0,170804.0,275097.0
215005.0,310272.0,170805.0,275107.0
215049.0,310311.0,170777.0,275113.0
215062.0,310332.0,170764.0,275053.0
215053.0,310363.0,170765.0,275075.0
215089.0,310405.0,170757.0,275057.0
215095.0,310392.0,170764.0,275048.0
215111.0,310436.0,170728.0,275066.0
215125.0,310412.0,170713.0,275065.0
215100.0,310433.0,170727.0,275040.0
215111.0,310399.0,170688.0,275062.0
215130.0,310447.0,170689.0,275048.0
215138.0,310416.0,170681.0,274996.0
215163.0,310420.0,170644.0,274988.0
215138.0,310432.0,170619.0,274981.0
215138.0,310455.0,170609.0,274970.0
215153.0,310438.0,170619.0,274996.0
215197.0,310465.0,170616.0,274992.0
215170.0,310500.0,170626.0,275007.0
215161.0,310510.0,170632.0,275038.0
215157.0,310509.0,170630.0,275036.0
215187.0,310476.0,170622.0,275032.0
215212.0,310519.0,170638.0,274996.0
215221.0,310491.0,170580.0,274964.0
215190.0,310489.0,170567.0,274998.0
215219.0,310481.0,170538.0,274945.0
215199.0,310463.0,170531.0,274956.0
215228.0,310422.0,170484.0,274904.0
215235.0,310411.0,170524.0,274903.0
215224.0,310402.0,170503.0,274906.0
215203.0,310356.0,170487.0,274904.0
215200.0,310293.0,170506.0,274883.0
215147.0,310285.0,170499.0,274874.0
215135.0,310224.0,170488.0,274940.0
215145.0,310176.0,170501.0,274921.0
215107.0,310081.0,170503.0,274913.0
215066.0,310041.0,170499.0,274904.0
215033.0,309971.0,170490.0,274899.0
215009.0,309942.0,170507.0,274903.0
214965.0,309903.0,170454.0,274852.0
214957.0,309844.0,170440.0,274865.0
214905.0,309846.0,170410.0,274814.0
214917.0,309774.0,170389.0,274813.0
214893.0,309721.0,170382.0,274774.0
214886.0,309652.0,170363.0,274752.0
214837.0,309665.0,170345.0,274763.0
214879.0,309660.0,170359.0,274720.0
214833.0,309600.0,170352.0,274756.0
214832.0,309603.0,170374.0,274785.0
214812.0,309587.0,170361.0,274802.0
214841.0,309578.0,170358.0,274803.0
214826.0,309597.0,170340.0,274796.0
214809.0,309584.0,170341.0,274761.0
214832.0,309549.0,170298.0,274752.0
214810.0,309549.0,170287.0,274744.0
214796.0,309527.0,170281.0,274744.0
214828.0,309530.0,170278.0,274731.0
214784.0,309496.0,170270.0,274735.0
214811.0,309536.0,170286.0,274710.0
214825.0,309524.0,170310.0,274736.0
214832.0,309587.0,170287.0,274740.0
214839.0,309589.0,170289.0,274725.0
214833.0,309606.0,170286.0,274760.0
214881.0,309604.0,170288.0,274768.0
214863.0,309626.0,170287.0,274796.0
214872.0,309649.0,170261.0,274762.0
214872.0,309617.0,170254.0,274795.0
214919.0,309601.0,170245.0,274812.0
214911.0,309616.0,170231.0,274761.0
214870.0,309614.0,170240.0,274729.0
214903.0,309647.0,170221.0,274710.0
214892.0,309628.0,170196.0,274688.0
214887.0,309612.0,170165.0,274653.0
214896.0,309618.0,170183.0,274686.0
214899.0,309604.0,170162.0,274649.0
214877.0,309616.0,170143.0,274633.0
214918.0,309595.0,170138.0,274623.0
214885.0,309630.0,170103.0,274618.0
214917.0,309600.0,170110.0,274596.0
214925.0,309627.0,170100.0,274602.0
214913.0,309605.0,170074.0,274610.0
214948.0,309596.0,170102.0,274546.0
214935.0,309601.0,170094.0,274603.0
214933.0,309633.0,170116.0,274625.0
214972.0,309627.0,170125.0,274607.0
214959.0,309630.0,170165.0,274633.0
214947.0,309684.0,170167.0,274689.0
214969.0,309667.0,170169.0,274716.0
214989.0,309731.0,170151.0,274723.0
214998.0,309737.0,170191.0,274706.0
215023.0,309740.0,170167.0,274730.0
215006.0,309794.0,170187.0,274697.0
215031.0,309793.0,170177.0,274722.0
215054.0,309808.0,170170.0,274703.0
215068.0,309876.0,170140.0,274701.0
215103.0,309857.0,170158.0,274738.0
215114.0,309884.0,170173.0,274776.0
215071.0,309932.0,170193.0,274811.0
215137.0,309945.0,170241.0,274866.0
215134.0,309973.0,170252.0,274867.0
215149.0,310000.0,170289.0,274914.0
215167.0,310025.0,170311.0,274918.0
215174.0,310034.0,170292.0,274933.0
215183.0,310085.0,170318.0,274975.0
215219.0,310059.0,170307.0,274967.0
215215.0,310066.0,170289.0,274908.0
215211.0,310014.0,170306.0,274860.0
215178.0,309965.0,170279.0,274906.0
215198.0,309990.0,170305.0,274898.0
215169.0,309955.0,170294.0,274918.0
215147.0,309943.0,170257.0,274875.0
215171.0,309868.0,170275.0,274853.0
215144.0,309917.0,170255.0,274806.0
215128.0,309872.0,170255.0,274827.0
215096.0,309867.0,170290.0,274860.0
215122.0,309834.0,170275.0,274856.0
215103.0,309778.0,170280.0,274805.0
215079.0,309793.0,170256.0,274869.0
215035.0,309734.0,170249.0,274845.0
215050.0,309742.0,170218.0,274805.0
215065.0,309740.0,170212.0,274769.0
215049.0,309707.0,170204.0,274723.0
215068.0,309730.0,170166.0,274732.0
215039.0,309703.0,170193.0,274722.0
215047.0,309730.0,170220.0,274748.0
215047.0,309734.0,170209.0,274739.0
215036.0,309759.0,170230.0,274794.0
215037.0,309749.0,170225.0,274786.0
215031.0,309730.0,170270.0,274836.0
215069.0,309741.0,170237.0,274842.0
215060.0,309803.0,170232.0,274819.0
215081.0,309838.0,170239.0,274786.0
215076.0,309818.0,170206.0,274736.0
215105.0,309795.0,170205.0,274804.0
215100.0,309835.0,170190.0,274767.0
215091.0,309828.0,170176.0,274787.0
215128.0,309863.0,170193.0,274734.0
215150.0,309852.0,170165.0,274722.0
215139.0,309842.0,170175.0,274757.0
215170.0,309912.0,170188.0,274777.0
215151.0,309901.0,170228.0,274868.0
215199.0,309982.0,170258.0,274896.0
215178.0,309989.0,170293.0,274936.0
215220.0,310012.0,170340.0,275004.0
215217.0,310046.0,170356.0,275017.0
215229.0,310087.0,170397.0,275073.0
215254.0,310160.0,170397.0,275085.0
215275.0,310192.0,170424.0,275110.0
215322.0,310213.0,170413.0,275146.0
215330.0,310267.0,170408.0,275141.0
215363.0,310315.0,170452.0,275125.0
215380.0,310351.0,170437.0,275119.0
215401.0,310395.0,170438.0,275134.0
215399.0,310460.0,170446.0,275107.0
215428.0,310486.0,170446.0,275123.0
215456.0,310501.0,170425.0,275114.0
215452.0,310493.0,170444.0,275121.0
215475.0,310525.0,170421.0,275105.0
215490.0,310559.0,170437.0,275081.0
215503.0,310611.0,170423.0,275080.0
215530.0,310619.0,170442.0,275097.0
215558.0,310655.0,170428.0,275106.0
215568.0,310665.0,170393.0,275103.0
215583.0,310695.0,170411.0,275012.0
215572.0,310721.0,170397.0,275010.0
215602.0,310675.0,170370.0,274985.0
215615.0,310721.0,170350.0,275008.0
215635.0,310750.0,170344.0,275006.0
215655.0,310769.0,170343.0,274985.0
215667.0,310816.0,170369.0,275010.0
215696.0,310842.0,170346.0,275003.0
215726.0,310885.0,170320.0,274988.0
215711.0,310880.0,170341.0,274988.0
215711.0,310877.0,170354.0,275023.0
215721.0,310853.0,170380.0,275081.0
215713.0,310856.0,170385.0,275060.0
215738.0,310861.0,170424.0,275096.0
215728.0,310839.0,170406.0,275093.0
215736.0,310814.0,170423.0,275116.0
215719.0,310782.0,170417.0,275085.0
215705.0,310749.0,170418.0,275070.0
215692.0,310717.0,170451.0,275091.0
215670.0,310702.0,170454.0,275100.0
215639.0,310642.0,170464.0,275125.0
215606.0,310566.0,170466.0,275106.0
215593.0,310524.0,170474.0,275120.0
215555.0,310471.0,170480.0,275102.0
215558.0,310441.0,170487.0,275137.0
215509.0,310376.0,170536.0,275196.0
215473.0,310352.0,170539.0,275219.0
215468.0,310346.0,170562.0,275218.0
215463.0,310329.0,170609.0,275284.0
215413.0,310363.0,170668.0,275302.0
215412.0,310346.0,170725.0,275377.0
215397.0,310338.0,170751.0,275398.0
215377.0,310336.0,170794.0,275504.0
215378.0,310363.0,170804.0,275490.0
215350.0,310313.0,170789.0,275455.0
215416.0,310394.0,170790.0,275435.0
215396.0,310366.0,170734.0,275374.0
215385.0,310414.0,170705.0,275358.0
215399.0,310415.0,170651.0,275326.0
215434.0,310467.0,170693.0,275290.0
215409.0,310405.0,170666.0,275298.0
215419.0,310433.0,170654.0,275246.0
215418.0,310429.0,170646.0,275237.0
215435.0,310418.0,170637.0,275232.0
215430.0,310414.0,170645.0,275239.0
215432.0,310382.0,170664.0,275219.0
215425.0,310384.0,170656.0,275280.0
215405.0,310396.0,170661.0,275295.0
215436.0,310366.0,170652.0,275265.0
215424.0,310428.0,170631.0,275265.0
215429.0,310396.0,170622.0,275243.0
215441.0,310384.0,170642.0,275232.0
215373.0,310401.0,170624.0,275198.0
215451.0,310384.0,170608.0,275144.0
215457.0,310373.0,170605.0,275127.0
215423.0,310335.0,170548.0,275142.0
215446.0,310336.0,170562.0,275121.0
215438.0,310312.0,170566.0,275130.0
215452.0,310303.0,170592.0,275159.0
215447.0,310338.0,170605.0,275189.0
215454.0,310342.0,170604.0,275175.0
215485.0,310413.0,170574.0,275178.0
215487.0,310395.0,170589.0,275162.0
215511.0,310428.0,170558.0,275133.0
215508.0,310436.0,170525.0,275116.0
215505.0,310467.0,170500.0,275077.0
215520.0,310456.0,170471.0,275057.0
215605.0,310406.0,170452.0,275021.0
215554.0,310467.0,170414.0,274992.0
215570.0,310461.0,170398.0,274955.0
215590.0,310508.0,170465.0,274977.0
215644.0,310590.0,170455.0,275029.0
215671.0,310613.0,170473.0,275102.0
215712.0,310664.0,170526.0,275107.0
215698.0,310656.0,170544.0,275158.0
215678.0,310664.0,170546.0,275166.0
215709.0,310704.0,170583.0,275230.0
215685.0,310732.0,170632.0,275284.0
215717.0,310742.0,170655.0,275309.0
215722.0,310758.0,170686.0,275335.0
215712.0,310800.0,170705.0,275328.0
215739.0,310829.0,170756.0,275388.0
215766.0,310866.0,170789.0,275497.0
215727.0,310915.0,170878.0,275567.0
215747.0,310901.0,170926.0,275629.0
215747.0,310907.0,171013.0,275726.0
215697.0,310865.0,171056.0,275692.0
215695.0,310870.0,171112.0,275661.0
215676.0,310837.0,171146.0,275679.0
215652.0,310821.0,171155.0,275673.0
215606.0,310790.0,171170.0,275659.0
215605.0,310749.0,171207.0,275605.0
215593.0,310719.0,171176.0,275650.0
215582.0,310679.0,171183.0,275634.0
215577.0,310658.0,171196.0,275667.0
215582.0,310634.0,171220.0,275662.0
215529.0,310632.0,171231.0,275634.0
215524.0,310624.0,171251.0,275624.0
215526.0,310594.0,171252.0,275671.0
215514.0,310561.0,171289.0,275671.0
215503.0,310566.0,171256.0,275625.0
215493.0,310519.0,171241.0,275620.0
215505.0,310525.0,171245.0,275589.0
215522.0,310568.0,171157.0,275543.0
215517.0,310544.0,171168.0,275482.0
215499.0,310504.0,171096.0,275446.0
215526.0,310502.0,171102.0,275395.0
215505.0,310474.0,171083.0,275420.0
215456.0,310468.0,171105.0,275443.0
215463.0,310402.0,171132.0,275474.0
215460.0,310434.0,171147.0,275492.0
215466.0,310406.0,171136.0,275473.0
215467.0,310408.0,171146.0,275467.0
215462.0,310431.0,171122.0,275465.0
215480.0,310461.0,171119.0,275448.0
215542.0,310495.0,171074.0,275408.0
215505.0,310475.0,171053.0,275389.0
215545.0,310489.0,170994.0,275348.0
215517.0,310462.0,170960.0,275313.0
215537.0,310445.0,170960.0,275261.0
215479.0,310435.0,170922.0,275190.0
215500.0,310341.0,170900.0,275189.0
215472.0,310320.0,170856.0,275183.0
215467.0,310294.0,170842.0,275159.0
215495.0,310275.0,170847.0,275168.0
215472.0,310247.0,170803.0,275118.0
215476.0,310219.0,170815.0,275127.0
215455.0,310213.0,170848.0,275107.0
215461.0,310172.0,170819.0,275115.0
215426.0,310170.0,170808.0,275164.0
215442.0,310196.0,170853.0,275158.0
215428.0,310177.0,170857.0,275156.0
215411.0,310155.0,170884.0,275164.0
215403.0,310177.0,170870.0,275181.0
215415.0,310153.0,170841.0,275177.0
215428.0,310183.0,170858.0,275146.0
215439.0,310181.0,170853.0,275153.0
215460.0,310239.0,170843.0,275167.0
215486.0,310257.0,170823.0,275130.0
215473.0,310253.0,170804.0,275149.0
215508.0,310280.0,170816.0,275108.0
215480.0,310280.0,170808.0,275137.0
215478.0,310277.0,170857.0,275195.0
215509.0,310293.0,170850.0,275188.0
215528.0,310311.0,170824.0,275213.0
215504.0,310329.0,170844.0,275174.0
215546.0,310301.0,170852.0,275173.0
215540.0,310336.0,170827.0,275217.0
215578.0,310341.0,170874.0,275208.0
215585.0,310396.0,170845.0,275176.0
215596.0,310422.0,170815.0,275148.0
215641.0,310447.0,170821.0,275166.0
215647.0,310505.0,170811.0,275183.0
215643.0,310486.0,170834.0,275218.0
215647.0,310486.0,170825.0,275190.0
215684.0,310531.0,170818.0,275174.0
215694.0,310544.0,170776.0,275165.0
215686.0,310554.0,170750.0,275167.0
215709.0,310543.0,170767.0,275136.0
215739.0,310557.0,170737.0,275167.0
215708.0,310481.0,170746.0,275115.0
215744.0,310492.0,170732.0,275092.0
215722.0,310506.0,170696.0,275045.0
215699.0,310452.0,170726.0,275006.0
215682.0,310343.0,170638.0,274945.0
215677.0,310269.0,170643.0,274920.0
215643.0,310175.0,170602.0,274873.0
215584.0,310113.0,170535.0,274821.0
215568.0,310040.0,170548.0,274797.0
215538.0,309940.0,170547.0,274773.0
215478.0,309874.0,170514.0,274737.0
215467.0,309717.0,170456.0,274726.0
215452.0,309738.0,170518.0,274697.0
215384.0,309671.0,170542.0,274718.0
215336.0,309695.0,170502.0,274696.0
215328.0,309605.0,170522.0,274738.0
215289.0,309560.0,170529.0,274749.0
215253.0,309518.0,170539.0,274745.0
215253.0,309501.0,170545.0,274791.0
215233.0,309503.0,170580.0,274813.0
215206.0,309464.0,170533.0,274809.0
215183.0,309408.0,170573.0,274799.0
215182.0,309349.0,170554.0,274813.0
215164.0,309391.0,170545.0,274792.0
215107.0,309339.0,170555.0,274809.0
215140.0,309318.0,170564.0,274783.0
215107.0,309303.0,170554.0,274799.0
215144.0,309283.0,170509.0,274800.0
215082.0,309318.0,170523.0,274814.0
215119.0,309242.0,170528.0,274823.0
215081.0,309246.0,170559.0,274842.0
215107.0,309247.0,170584.0,274918.0
215043.0,309230.0,170595.0,274973.0
215034.0,309166.0,170604.0,274916.0
215015.0,309151.0,170588.0,274951.0
215018.0,309159.0,170594.0,274928.0
214995.0,309125.0,170586.0,274957.0
215020.0,309141.0,170570.0,274952.0
214996.0,309122.0,170578.0,274935.0
215022.0,309127.0,170635.0,274939.0
215013.0,309131.0,170626.0,274984.0
215012.0,309135.0,170645.0,275000.0
214996.0,309086.0,170645.0,275001.0
214966.0,309052.0,170615.0,274972.0
214987.0,309063.0,170620.0,274986.0
214964.0,309052.0,170648.0,274984.0
214976.0,309059.0,170614.0,274974.0
214964.0,309119.0,170616.0,274953.0
214988.0,309122.0,170606.0,274959.0
214974.0,309110.0,170583.0,274958.0
214972.0,309133.0,170608.0,274966.0
214965.0,309171.0,170624.0,274970.0
214989.0,309123.0,170622.0,275032.0
215014.0,309178.0,170617.0,274985.0
215005.0,309186.0,170626.0,274994.0
215023.0,309153.0,170614.0,275016.0
215014.0,309209.0,170607.0,274990.0
215027.0,309206.0,170604.0,274956.0
215013.0,309226.0,170584.0,274959.0
215039.0,309212.0,170566.0,274949.0
215030.0,309204.0,170574.0,274956.0
214999.0,309218.0,170560.0,274915.0
215029.0,309260.0,170576.0,274952.0
215025.0,309219.0,170553.0,274913.0
215030.0,309241.0,170547.0,274887.0
215019.0,309261.0,170509.0,274871.0
215056.0,309234.0,170529.0,274868.0
215053.0,309253.0,170526.0,274861.0
215047.0,309263.0,170512.0,274863.0
215049.0,309240.0,170490.0,274866.0
215057.0,309256.0,170503.0,274862.0
215066.0,309247.0,170542.0,274934.0
215051.0,309297.0,170530.0,274943.0
215092.0,309274.0,170546.0,274903.0
215065.0,309271.0,170524.0,274962.0
215075.0,309297.0,170535.0,274928.0
215081.0,309286.0,170547.0,274968.0
215090.0,309285.0,170524.0,274914.0
215094.0,309257.0,170502.0,274950.0
215107.0,309263.0,170527.0,274918.0
215080.0,309228.0,170503.0,274905.0
215084.0,309145.0,170495.0,274896.0
215049.0,309134.0,170524.0,274920.0
214997.0,309029.0,170531.0,274902.0
214972.0,308965.0,170550.0,274891.0
214934.0,308936.0,170542.0,274955.0
214910.0,308852.0,170524.0,274932.0
214868.0,308775.0,170536.0,274908.0
214815.0,308701.0,170521.0,274882.0
214791.0,308689.0,170540.0,274894.0
214774.0,308623.0,170465.0,274872.0
214703.0,308585.0,170481.0,274833.0
214732.0,308529.0,170462.0,274854.0
214685.0,308482.0,170496.0,274801.0
214669.0,308453.0,170459.0,274770.0
214662.0,308410.0,170465.0,274774.0
214666.0,308390.0,170396.0,274751.0
214622.0,308343.0,170387.0,274690.0
214592.0,308320.0,170379.0,274695.0
214572.0,308292.0,170390.0,274690.0
214586.0,308282.0,170383.0,274701.0
214550.0,308273.0,170380.0,274701.0
214544.0,308265.0,170378.0,274714.0
214515.0,308257.0,170402.0,274753.0
214507.0,308274.0,170394.0,274802.0
214522.0,308228.0,170387.0,274813.0
214524.0,308228.0,170413.0,274750.0
214509.0,308215.0,170393.0,274766.0
214516.0,308229.0,170394.0,274751.0
214501.0,308244.0,170394.0,274758.0
214512.0,308177.0,170383.0,274734.0
214485.0,308166.0,170380.0,274720.0
214480.0,308183.0,170375.0,274709.0
214447.0,308108.0,170379.0,274702.0
214462.0,308153.0,170391.0,274704.0
214434.0,308091.0,170379.0,274729.0
214449.0,308079.0,170395.0,274750.0
214441.0,308072.0,170379.0,274717.0
214422.0,308067.0,170381.0,274731.0
214395.0,308047.0,170406.0,274807.0
214396.0,308030.0,170420.0,274785.0
214352.0,308044.0,170398.0,274808.0
214381.0,308056.0,170366.0,274768.0
214398.0,308047.0,170365.0,274718.0
214377.0,308058.0,170384.0,274781.0
214388.0,308078.0,170407.0,274800.0
214378.0,308034.0,170382.0,274827.0
214398.0,308084.0,170418.0,274841.0
214411.0,308098.0,170446.0,274857.0
214419.0,308127.0,170389.0,274870.0
214429.0,308120.0,170420.0,274970.0
214423.0,308155.0,170407.0,274828.0
214426.0,308177.0,170401.0,274800.0
214410.0,308192.0,170389.0,274830.0
214431.0,308197.0,170402.0,274832.0
214453.0,308201.0,170398.0,274788.0
214463.0,308227.0,170392.0,274805.0
214487.0,308255.0,170440.0,274836.0
214455.0,308264.0,170431.0,274854.0
214471.0,308294.0,170426.0,274876.0
214471.0,308319.0,170412.0,274830.0
214499.0,308345.0,170428.0,274853.0
214498.0,308320.0,170413.0,274884.0
214517.0,308340.0,170386.0,274897.0
214523.0,308356.0,170389.0,274902.0
214514.0,308361.0,170421.0,274860.0
214534.0,308392.0,170431.0,274854.0
214610.0,308397.0,170409.0,274870.0
214552.0,308375.0,170382.0,274821.0
214552.0,308384.0,170387.0,274822.0
214547.0,308340.0,170376.0,274794.0
214560.0,308332.0,170350.0,274769.0
214522.0,308272.0,170314.0,274752.0
214562.0,308281.0,170324.0,274732.0
214508.0,308222.0,170306.0,274737.0
214487.0,308151.0,170305.0,274685.0
214461.0,308128.0,170330.0,274723.0
214451.0,308099.0,170375.0,274797.0
214433.0,308010.0,170339.0,274741.0
214382.0,307959.0,170350.0,274787.0
214344.0,307911.0,170306.0,274753.0
214330.0,307821.0,170333.0,274740.0
214313.0,307780.0,170300.0,274735.0
214252.0,307713.0,170291.0,274705.0
214249.0,307664.0,170340.0,274766.0
214249.0,307654.0,170339.0,274748.0
214217.0,307649.0,170341.0,274787.0
214201.0,307603.0,170324.0,274797.0
214186.0,307627.0,170318.0,274788.0
