222831.0,317689.0,175209.0,280675.0
222810.0,317646.0,175233.0,280733.0
222792.0,317655.0,175259.0,280720.0
222748.0,317607.0,175243.0,280739.0
222731.0,317625.0,175285.0,280749.0
222744.0,317601.0,175277.0,280793.0
222728.0,317552.0,175279.0,280842.0
222727.0,317569.0,175291.0,280841.0
222717.0,317607.0,175308.0,280843.0
222716.0,317577.0,175311.0,280816.0
222719.0,317556.0,175302.0,280829.0
222715.0,317579.0,175323.0,280847.0
222696.0,317572.0,175327.0,280852.0
222703.0,317581.0,175300.0,280908.0
222736.0,317564.0,175303.0,280886.0
222727.0,317537.0,175312.0,280900.0
222726.0,317555.0,175326.0,280898.0
222705.0,317568.0,175322.0,280870.0
222708.0,317568.0,175335.0,280887.0
222714.0,317573.0,175311.0,280849.0
222701.0,317547.0,175326.0,280859.0
222695.0,317499.0,175317.0,280834.0
222750.0,317545.0,175339.0,280859.0
222675.0,317526.0,175316.0,280884.0
222713.0,317510.0,175322.0,280918.0
222685.0,317495.0,175317.0,280897.0
222667.0,317457.0,175305.0,280859.0
222644.0,317447.0,175281.0,280820.0
222631.0,317473.0,175300.0,280880.0
222658.0,317413.0,175285.0,280836.0
222615.0,317367.0,175266.0,280801.0
222597.0,317334.0,175230.0,280808.0
222602.0,317300.0,175239.0,280788.0
222591.0,317293.0,175208.0,280814.0
222566.0,317236.0,175223.0,280777.0
222565.0,317231.0,175193.0,280747.0
222519.0,317224.0,175204.0,280744.0
222511.0,317201.0,175230.0,280749.0
222501.0,317190.0,175173.0,280737.0
222520.0,317128.0,175190.0,280745.0
222516.0,317099.0,175163.0,280713.0
222457.0,317054.0,175137.0,280751.0
222466.0,317074.0,175156.0,280731.0
222429.0,317018.0,175129.0,280695.0
222420.0,317023.0,175151.0,280683.0
222376.0,316974.0,175130.0,280751.0
222392.0,316965.0,175179.0,280806.0
222392.0,316949.0,175150.0,280809.0
222387.0,316966.0,175176.0,280738.0
222382.0,316977.0,175160.0,280777.0
222402.0,316986.0,175166.0,280787.0
222432.0,316980.0,175165.0,280818.0
222421.0,316999.0,175163.0,280766.0
222433.0,316973.0,175149.0,280776.0
222396.0,316987.0,175129.0,280731.0
222395.0,316967.0,175116.0,280745.0
222394.0,316915.0,175042.0,280728.0
222366.0,316964.0,175087.0,280726.0
222354.0,316924.0,175123.0,280718.0
222345.0,316900.0,175101.0,280695.0
222356.0,316866.0,175049.0,280681.0
222323.0,316867.0,175054.0,280689.0
222287.0,316798.0,175042.0,280683.0
222295.0,316739.0,175027.0,280680.0
222269.0,316678.0,175030.0,280610.0
222263.0,316600.0,175012.0,280614.0
222192.0,316542.0,174997.0,280624.0
222147.0,316439.0,175002.0,280562.0
222174.0,316343.0,174996.0,280630.0
222107.0,316281.0,174993.0,280565.0
222058.0,316182.0,174965.0,280581.0
221999.0,316083.0,174937.0,280518.0
221953.0,315999.0,174943.0,280530.0
221901.0,315915.0,174959.0,280574.0
221894.0,315862.0,174950.0,280542.0
221867.0,315805.0,174942.0,280593.0
221823.0,315778.0,174947.0,280552.0
221793.0,315739.0,174949.0,280527.0
221794.0,315697.0,174945.0,280509.0
221775.0,315682.0,174931.0,280524.0
221730.0,315618.0,174926.0,280532.0
221733.0,315640.0,174914.0,280550.0
221720.0,315655.0,174929.0,280533.0
221717.0,315643.0,174890.0,280471.0
221719.0,315621.0,174893.0,280467.0
221706.0,315626.0,174867.0,280417.0
221728.0,315535.0,174815.0,280369.0
221665.0,315526.0,174828.0,280376.0
221638.0,315490.0,174804.0,280377.0
221619.0,315486.0,174815.0,280400.0
221591.0,315454.0,174792.0,280374.0
221613.0,315396.0,174801.0,280424.0
221565.0,315416.0,174797.0,280378.0
221588.0,315340.0,174763.0,280380.0
221565.0,315378.0,174781.0,280385.0
221582.0,315343.0,174751.0,280338.0
221557.0,315328.0,174743.0,280293.0
221547.0,315240.0,174731.0,280262.0
221477.0,315187.0,174689.0,280268.0
221480.0,315182.0,174687.0,280253.0
221465.0,315134.0,174687.0,280289.0
221422.0,315116.0,174692.0,280222.0
221416.0,315052.0,174672.0,280240.0
221407.0,315009.0,174665.0,280292.0
221375.0,315001.0,174688.0,280246.0
221367.0,314966.0,174663.0,280278.0
221401.0,314954.0,174646.0,280212.0
221372.0,314933.0,174670.0,280196.0
221344.0,314896.0,174635.0,280197.0
221404.0,314929.0,174648.0,280148.0
221339.0,314891.0,174624.0,280159.0
221305.0,314888.0,174610.0,280124.0
221321.0,314886.0,174607.0,280156.0
221355.0,314882.0,174601.0,280161.0
221303.0,314894.0,174590.0,280136.0
221316.0,314836.0,174584.0,280129.0
221328.0,314861.0,174563.0,280132.0
221315.0,314881.0,174577.0,280097.0
221335.0,314884.0,174524.0,280087.0
221325.0,314881.0,174512.0,280086.0
221326.0,314875.0,174504.0,280043.0
221309.0,314810.0,174476.0,280011.0
221302.0,314866.0,174455.0,280024.0
221327.0,314876.0,174468.0,279982.0
221367.0,314858.0,174476.0,279990.0
221308.0,314829.0,174472.0,280027.0
221314.0,314837.0,174468.0,280003.0
221312.0,314854.0,174472.0,280000.0
221332.0,314850.0,174444.0,279986.0
221343.0,314836.0,174453.0,279959.0
221385.0,314880.0,174464.0,279986.0
221358.0,314847.0,174444.0,279941.0
221336.0,314904.0,174431.0,279908.0
221372.0,314913.0,174418.0,279913.0
221338.0,314864.0,174441.0,279897.0
221355.0,314843.0,174412.0,279879.0
221347.0,314786.0,174414.0,279876.0
221343.0,314785.0,174414.0,279910.0
221307.0,314715.0,174402.0,279869.0
221299.0,314687.0,174388.0,279814.0
221277.0,314601.0,174389.0,279840.0
221247.0,314515.0,174354.0,279854.0
221219.0,314457.0,174351.0,279796.0
221197.0,314444.0,174376.0,279773.0
221157.0,314413.0,174362.0,279802.0
221155.0,314343.0,174350.0,279765.0
221121.0,314263.0,174338.0,279777.0
221123.0,314239.0,174348.0,279782.0
221083.0,314169.0,174359.0,279764.0
221060.0,314144.0,174379.0,279778.0
221061.0,314149.0,174407.0,279848.0
221053.0,314146.0,174411.0,279842.0
221057.0,314198.0,174422.0,279812.0
221069.0,314179.0,174428.0,279834.0
221103.0,314212.0,174422.0,279854.0
221115.0,314268.0,174460.0,279839.0
221124.0,314282.0,174439.0,279893.0
221128.0,314287.0,174421.0,279898.0
221180.0,314398.0,174456.0,279877.0
221147.0,314355.0,174434.0,279902.0
221118.0,314344.0,174426.0,279894.0
221155.0,314339.0,174432.0,279841.0
221179.0,314378.0,174413.0,279869.0
221203.0,314390.0,174419.0,279863.0
221188.0,314381.0,174404.0,279867.0
221216.0,314422.0,174401.0,279858.0
221194.0,314470.0,174418.0,279855.0
221233.0,314477.0,174448.0,279839.0
221237.0,314467.0,174443.0,279856.0
221221.0,314486.0,174405.0,279895.0
221243.0,314505.0,174407.0,279884.0
221243.0,314474.0,174431.0,279854.0
221242.0,314526.0,174409.0,279884.0
221248.0,314520.0,174419.0,279898.0
221281.0,314526.0,174433.0,279872.0
221271.0,314563.0,174448.0,279869.0
221248.0,314507.0,174435.0,279896.0
221254.0,314498.0,174401.0,279864.0
221297.0,314536.0,174401.0,279835.0
221274.0,314564.0,174392.0,279847.0
221293.0,314582.0,174380.0,279825.0
221282.0,314584.0,174396.0,279841.0
221293.0,314599.0,174363.0,279845.0
221296.0,314598.0,174371.0,279796.0
221277.0,314589.0,174382.0,279819.0
221308.0,314602.0,174364.0,279866.0
221327.0,314662.0,174393.0,279864.0
221341.0,314697.0,174399.0,279817.0
221348.0,314700.0,174376.0,279788.0
221370.0,314695.0,174402.0,279839.0
221355.0,314748.0,174364.0,279879.0
221365.0,314760.0,174403.0,279836.0
221399.0,314823.0,174385.0,279904.0
221451.0,314822.0,174394.0,279847.0
221419.0,314890.0,174418.0,279886.0
221480.0,314887.0,174409.0,279876.0
221494.0,314932.0,174416.0,279869.0
221514.0,314943.0,174433.0,279935.0
221519.0,315007.0,174455.0,279951.0
221549.0,315089.0,174462.0,279975.0
221569.0,315081.0,174461.0,280011.0
221594.0,315168.0,174481.0,280007.0
221608.0,315203.0,174483.0,279999.0
221618.0,315215.0,174460.0,280026.0
221641.0,315266.0,174484.0,280016.0
221688.0,315308.0,174465.0,279995.0
221706.0,315327.0,174474.0,280005.0
221717.0,315331.0,174467.0,280032.0
221736.0,315329.0,174495.0,280066.0
221739.0,315323.0,174502.0,280029.0
221742.0,315337.0,174514.0,279976.0
221747.0,315280.0,174518.0,279984.0
221732.0,315259.0,174499.0,279974.0
221722.0,315221.0,174490.0,279978.0
221702.0,315163.0,174472.0,279936.0
221672.0,315124.0,174491.0,279935.0
221649.0,315100.0,174498.0,279966.0
221678.0,315047.0,174520.0,279972.0
221673.0,315069.0,174512.0,279984.0
221624.0,315045.0,174493.0,279948.0
221623.0,314982.0,174493.0,279972.0
221586.0,315003.0,174481.0,279930.0
221564.0,314969.0,174488.0,279953.0
221564.0,314972.0,174533.0,279904.0
221591.0,314958.0,174494.0,279882.0
221607.0,315005.0,174499.0,279916.0
221564.0,314956.0,174500.0,279908.0
221578.0,314987.0,174485.0,279880.0
221579.0,314969.0,174479.0,279919.0
221565.0,315021.0,174481.0,279868.0
221588.0,314990.0,174469.0,279862.0
221558.0,314970.0,174469.0,279905.0
221600.0,315058.0,174515.0,279947.0
221625.0,315074.0,174506.0,279944.0
221595.0,315089.0,174494.0,279968.0
221623.0,315099.0,174507.0,279916.0
221628.0,315105.0,174510.0,279951.0
221640.0,315134.0,174487.0,279941.0
221629.0,315137.0,174519.0,279966.0
221650.0,315173.0,174524.0,279980.0
221662.0,315170.0,174498.0,279989.0
221677.0,315196.0,174515.0,279967.0
221658.0,315191.0,174505.0,279989.0
221698.0,315248.0,174578.0,280028.0
221706.0,315266.0,174588.0,280053.0
221719.0,315283.0,174578.0,280018.0
221730.0,315321.0,174570.0,280057.0
221739.0,315354.0,174579.0,280053.0
221767.0,315366.0,174583.0,280077.0
221762.0,315422.0,174587.0,280081.0
221816.0,315434.0,174597.0,280088.0
221810.0,315456.0,174618.0,280086.0
221804.0,315521.0,174635.0,280097.0
221840.0,315556.0,174611.0,280139.0
221864.0,315609.0,174655.0,280089.0
221903.0,315659.0,174636.0,280108.0
221921.0,315701.0,174642.0,280139.0
221945.0,315732.0,174666.0,280127.0
221961.0,315806.0,174666.0,280120.0
221986.0,315829.0,174625.0,280083.0
222016.0,315888.0,174671.0,280100.0
222036.0,315912.0,174673.0,280157.0
222057.0,316003.0,174667.0,280174.0
222058.0,316041.0,174675.0,280140.0
222100.0,316100.0,174680.0,280171.0
222161.0,316158.0,174686.0,280154.0
222182.0,316184.0,174689.0,280155.0
222151.0,316212.0,174684.0,280155.0
222212.0,316286.0,174690.0,280164.0
222233.0,316388.0,174697.0,280159.0
222283.0,316392.0,174677.0,280153.0
222276.0,316430.0,174685.0,280183.0
222329.0,316509.0,174685.0,280129.0
222295.0,316494.0,174696.0,280173.0
222350.0,316568.0,174708.0,280189.0
222361.0,316618.0,174714.0,280194.0
222402.0,316673.0,174687.0,280161.0
222385.0,316672.0,174714.0,280142.0
222434.0,316689.0,174693.0,280163.0
222412.0,316745.0,174693.0,280173.0
222436.0,316701.0,174701.0,280208.0
222424.0,316690.0,174724.0,280175.0
222443.0,316650.0,174756.0,280190.0
222427.0,316658.0,174735.0,280187.0
222423.0,316616.0,174751.0,280194.0
222411.0,316613.0,174756.0,280192.0
222373.0,316548.0,174767.0,280218.0
222375.0,316523.0,174781.0,280242.0
222370.0,316530.0,174792.0,280228.0
222346.0,316477.0,174786.0,280230.0
222340.0,316420.0,174802.0,280228.0
222344.0,316458.0,174831.0,280254.0
222353.0,316490.0,174816.0,280267.0
222320.0,316440.0,174845.0,280246.0
222308.0,316429.0,174798.0,280267.0
222316.0,316491.0,174833.0,280260.0
222289.0,316500.0,174841.0,280303.0
222303.0,316505.0,174855.0,280334.0
222337.0,316520.0,174872.0,280353.0
222326.0,316566.0,174885.0,280346.0
222339.0,316569.0,174901.0,280375.0
222331.0,316614.0,174892.0,280369.0
222340.0,316608.0,174857.0,280354.0
222360.0,316620.0,174882.0,280334.0
222323.0,316624.0,174888.0,280325.0
222341.0,316597.0,174856.0,280290.0
222312.0,316625.0,174872.0,280306.0
222356.0,316628.0,174847.0,280287.0
222325.0,316638.0,174867.0,280300.0
222335.0,316651.0,174833.0,280282.0
222309.0,316646.0,174837.0,280211.0
222338.0,316623.0,174827.0,280209.0
222317.0,316697.0,174801.0,280228.0
222297.0,316667.0,174800.0,280219.0
222313.0,316658.0,174804.0,280239.0
222294.0,316663.0,174795.0,280189.0
222334.0,316680.0,174814.0,280261.0
222329.0,316709.0,174797.0,280235.0
222322.0,316737.0,174827.0,280270.0
222333.0,316748.0,174837.0,280236.0
222324.0,316768.0,174843.0,280282.0
222353.0,316782.0,174832.0,280279.0
222353.0,316731.0,174847.0,280271.0
222351.0,316776.0,174843.0,280264.0
222341.0,316776.0,174863.0,280241.0
222362.0,316773.0,174825.0,280229.0
222328.0,316844.0,174831.0,280282.0
222346.0,316808.0,174857.0,280260.0
222344.0,316819.0,174886.0,280320.0
222389.0,316855.0,174850.0,280287.0
222362.0,316895.0,174892.0,280280.0
222363.0,316931.0,174829.0,280250.0
222396.0,316911.0,174851.0,280284.0
222377.0,316971.0,174842.0,280258.0
222372.0,316952.0,174853.0,280288.0
222395.0,316975.0,174837.0,280269.0
222384.0,317006.0,174850.0,280274.0
222422.0,316985.0,174850.0,280312.0
222415.0,317009.0,174864.0,280308.0
222409.0,317038.0,174870.0,280303.0
222475.0,317067.0,174872.0,280345.0
222452.0,317100.0,174889.0,280314.0
222451.0,317140.0,174872.0,280322.0
222496.0,317149.0,174885.0,280326.0
222519.0,317159.0,174887.0,280261.0
222480.0,317191.0,174848.0,280304.0
222485.0,317229.0,174877.0,280265.0
222494.0,317197.0,174864.0,280319.0
222502.0,317218.0,174865.0,280326.0
222513.0,317234.0,174869.0,280314.0
222516.0,317237.0,174845.0,280302.0
222516.0,317259.0,174856.0,280285.0
222528.0,317266.0,174854.0,280291.0
222515.0,317240.0,174822.0,280271.0
222478.0,317174.0,174793.0,280248.0
222489.0,317178.0,174795.0,280241.0
222465.0,317124.0,174782.0,280239.0
222432.0,317061.0,174813.0,280220.0
222416.0,316997.0,174801.0,280223.0
222403.0,316918.0,174804.0,280240.0
222353.0,316860.0,174805.0,280199.0
222354.0,316842.0,174817.0,280241.0
222274.0,316764.0,174787.0,280230.0
222268.0,316703.0,174794.0,280240.0
222264.0,316656.0,174798.0,280278.0
222219.0,316598.0,174818.0,280240.0
222178.0,316571.0,174774.0,280225.0
222168.0,316544.0,174781.0,280194.0
222134.0,316468.0,174788.0,280181.0
222112.0,316424.0,174768.0,280174.0
222062.0,316364.0,174742.0,280211.0
222039.0,316347.0,174746.0,280184.0
222001.0,316360.0,174750.0,280168.0
222010.0,316299.0,174758.0,280201.0
221979.0,316245.0,174794.0,280223.0
221960.0,316254.0,174781.0,280218.0
221958.0,316248.0,174737.0,280180.0
221949.0,316249.0,174755.0,280188.0
221943.0,316236.0,174677.0,280175.0
221904.0,316217.0,174729.0,280157.0
221914.0,316195.0,174718.0,280130.0
221897.0,316149.0,174716.0,280152.0
221891.0,316149.0,174700.0,280179.0
221867.0,316121.0,174729.0,280181.0
221874.0,316100.0,174706.0,280135.0
221867.0,316066.0,174710.0,280158.0
221808.0,316068.0,174692.0,280111.0
221836.0,316033.0,174681.0,280145.0
221795.0,316020.0,174713.0,280109.0
221776.0,316018.0,174687.0,280140.0
221769.0,315957.0,174666.0,280126.0
221755.0,315977.0,174692.0,280097.0
221734.0,315942.0,174670.0,280118.0
221709.0,315931.0,174701.0,280149.0
221696.0,315896.0,174682.0,280145.0
221699.0,315941.0,174694.0,280155.0
221693.0,315916.0,174683.0,280153.0
221711.0,315884.0,174664.0,280149.0
221661.0,315890.0,174652.0,280107.0
221678.0,315845.0,174635.0,280165.0
221642.0,315839.0,174673.0,280128.0
221645.0,315830.0,174668.0,280131.0
221655.0,315857.0,174650.0,280169.0
221624.0,315841.0,174656.0,280119.0
221653.0,315842.0,174660.0,280130.0
221655.0,315907.0,174666.0,280171.0
221637.0,315833.0,174675.0,280135.0
221632.0,315881.0,174654.0,280139.0
221639.0,315879.0,174678.0,280141.0
221629.0,315890.0,174646.0,280121.0
221630.0,315899.0,174666.0,280141.0
221616.0,315907.0,174667.0,280187.0
221663.0,315925.0,174664.0,280186.0
221658.0,315926.0,174678.0,280196.0
221643.0,315971.0,174670.0,280186.0
221655.0,315952.0,174680.0,280175.0
221686.0,315973.0,174655.0,280199.0
221663.0,315948.0,174664.0,280187.0
221652.0,315995.0,174659.0,280177.0
221684.0,315968.0,174667.0,280148.0
221689.0,315984.0,174650.0,280176.0
221675.0,315980.0,174641.0,280163.0
221671.0,315960.0,174667.0,280118.0
221643.0,315921.0,174664.0,280178.0
221652.0,315903.0,174647.0,280132.0
221637.0,315894.0,174648.0,280143.0
221646.0,315892.0,174635.0,280140.0
221622.0,315825.0,174599.0,280118.0
221599.0,315812.0,174594.0,280087.0
221581.0,315733.0,174613.0,280057.0
221514.0,315655.0,174619.0,280038.0
221531.0,315606.0,174589.0,280056.0
221470.0,315545.0,174580.0,280051.0
221407.0,315504.0,174581.0,280047.0
221388.0,315413.0,174569.0,280043.0
221357.0,315318.0,174603.0,280039.0
221302.0,315324.0,174620.0,280046.0
221236.0,315249.0,174596.0,280080.0
221230.0,315233.0,174545.0,280053.0
221191.0,315155.0,174552.0,280045.0
221178.0,315161.0,174563.0,280000.0
221127.0,315095.0,174563.0,280018.0
221127.0,315118.0,174561.0,280016.0
221120.0,315103.0,174563.0,280076.0
221098.0,315044.0,174562.0,280039.0
221093.0,315049.0,174518.0,280036.0
221103.0,315048.0,174506.0,280046.0
221089.0,315047.0,174573.0,280075.0
221081.0,315076.0,174567.0,280078.0
221031.0,315091.0,174529.0,280055.0
221075.0,315084.0,174573.0,280060.0
221059.0,315086.0,174552.0,280040.0
221039.0,315092.0,174546.0,280033.0
221088.0,315120.0,174552.0,280072.0
221078.0,315131.0,174575.0,280038.0
221089.0,315174.0,174585.0,280058.0
221106.0,315226.0,174563.0,280094.0
221102.0,315172.0,174587.0,280070.0
221113.0,315195.0,174585.0,280088.0
221112.0,315185.0,174592.0,280084.0
221106.0,315191.0,174561.0,280046.0
221097.0,315172.0,174582.0,280080.0
221085.0,315210.0,174572.0,280081.0
221073.0,315169.0,174525.0,280043.0
221080.0,315166.0,174536.0,280023.0
221053.0,315182.0,174558.0,280031.0
221043.0,315183.0,174561.0,280050.0
221069.0,315194.0,174578.0,280037.0
221058.0,315187.0,174569.0,280084.0
221060.0,315182.0,174559.0,280127.0
221055.0,315191.0,174566.0,280081.0
221032.0,315203.0,174574.0,280025.0
221058.0,315236.0,174562.0,280050.0
221061.0,315218.0,174538.0,280012.0
221062.0,315236.0,174566.0,280018.0
221076.0,315236.0,174534.0,280024.0
221079.0,315250.0,174531.0,280028.0
221089.0,315293.0,174550.0,280014.0
221071.0,315285.0,174566.0,280036.0
221069.0,315271.0,174541.0,280003.0
221105.0,315329.0,174527.0,280020.0
221095.0,315347.0,174505.0,279988.0
221113.0,315374.0,174515.0,279991.0
221104.0,315416.0,174504.0,280009.0
221114.0,315396.0,174493.0,279978.0
221179.0,315432.0,174507.0,279942.0
221127.0,315431.0,174497.0,279964.0
221135.0,315449.0,174489.0,279937.0
221159.0,315424.0,174488.0,279923.0
221148.0,315475.0,174493.0,279954.0
221116.0,315461.0,174476.0,279978.0
221129.0,315490.0,174497.0,279968.0
221167.0,315452.0,174470.0,279935.0
221132.0,315454.0,174464.0,279942.0
221147.0,315409.0,174453.0,279922.0
221105.0,315425.0,174449.0,279927.0
221093.0,315326.0,174481.0,279905.0
221101.0,315281.0,174441.0,279909.0
221073.0,315269.0,174437.0,279876.0
221030.0,315179.0,174446.0,279869.0
221020.0,315152.0,174428.0,279869.0
220957.0,315096.0,174419.0,279874.0
220953.0,315089.0,174430.0,279846.0
220899.0,315001.0,174397.0,279801.0
220852.0,314944.0,174416.0,279835.0
220837.0,314918.0,174400.0,279817.0
