257743.0,394649.0,190468.0,300978.0
257692.0,394514.0,190459.0,301032.0
257696.0,394524.0,190484.0,301092.0
257727.0,394664.0,190512.0,301153.0
257831.0,394867.0,190589.0,301210.0
257908.0,395176.0,190611.0,301234.0
258053.0,395427.0,190608.0,301265.0
258195.0,395762.0,190605.0,301230.0
258374.0,396045.0,190636.0,301319.0
258498.0,396361.0,190667.0,301314.0
258685.0,396828.0,190677.0,301317.0
258928.0,397289.0,190685.0,301337.0
259147.0,397796.0,190712.0,301367.0
259339.0,398221.0,190733.0,301460.0
259586.0,398757.0,190791.0,301421.0
259774.0,399160.0,190801.0,301483.0
260035.0,399631.0,190794.0,301477.0
260214.0,400057.0,190819.0,301514.0
260458.0,400438.0,190850.0,301523.0
260676.0,400950.0,190838.0,301520.0
260896.0,401418.0,190847.0,301537.0
261129.0,401820.0,190877.0,301556.0
261360.0,402206.0,190866.0,301607.0
261524.0,402550.0,190905.0,301624.0
261689.0,402902.0,190944.0,301632.0
261895.0,403246.0,190943.0,301635.0
262134.0,403675.0,190957.0,301580.0
262311.0,404090.0,190937.0,301609.0
262529.0,404497.0,190943.0,301651.0
262703.0,404880.0,190953.0,301629.0
262870.0,405194.0,190976.0,301669.0
263072.0,405486.0,190958.0,301684.0
263258.0,405835.0,190963.0,301644.0
263383.0,406144.0,190944.0,301636.0
263598.0,406509.0,190971.0,301610.0
263787.0,406840.0,190953.0,301616.0
263927.0,407109.0,190988.0,301629.0
264128.0,407430.0,190995.0,301647.0
264298.0,407715.0,191011.0,301655.0
264452.0,408032.0,191029.0,301660.0
264631.0,408343.0,191013.0,301682.0
264765.0,408666.0,191019.0,301722.0
264940.0,408980.0,190996.0,301675.0
265142.0,409308.0,191018.0,301666.0
265319.0,409647.0,190979.0,301611.0
265492.0,409978.0,190981.0,301638.0
265632.0,410222.0,190987.0,301671.0
265815.0,410510.0,190971.0,301643.0
265965.0,410813.0,190981.0,301638.0
266151.0,411108.0,190970.0,301610.0
266275.0,411535.0,190989.0,301614.0
266485.0,411799.0,190983.0,301622.0
266708.0,412203.0,191000.0,301626.0
266855.0,412532.0,191010.0,301713.0
267012.0,412748.0,191004.0,301678.0
267173.0,413008.0,191022.0,301654.0
267315.0,413204.0,191009.0,301692.0
267439.0,413418.0,191007.0,301706.0
267548.0,413588.0,191047.0,301722.0
267691.0,413837.0,191027.0,301723.0
267835.0,414053.0,191000.0,301676.0
267981.0,414278.0,191004.0,301702.0
268110.0,414445.0,191037.0,301696.0
268262.0,414651.0,191036.0,301727.0
268382.0,414917.0,191052.0,301755.0
268520.0,415139.0,191056.0,301794.0
268635.0,415349.0,191081.0,301799.0
268809.0,415632.0,191084.0,301783.0
268985.0,416010.0,191116.0,301873.0
269131.0,416347.0,191154.0,301845.0
269299.0,416599.0,191135.0,301864.0
269456.0,416929.0,191179.0,301887.0
269652.0,417292.0,191147.0,301919.0
269822.0,417600.0,191175.0,301958.0
269982.0,417908.0,191209.0,301944.0
270162.0,418368.0,191224.0,301977.0
270388.0,418686.0,191254.0,301973.0
270534.0,418961.0,191252.0,301988.0
270723.0,419358.0,191234.0,302045.0
270892.0,419638.0,191255.0,302030.0
271088.0,419977.0,191281.0,302068.0
271278.0,420281.0,191271.0,302074.0
271462.0,420729.0,191275.0,302052.0
271652.0,421141.0,191304.0,302013.0
271908.0,421566.0,191295.0,302021.0
272152.0,421991.0,191319.0,302050.0
272323.0,422401.0,191334.0,302037.0
272556.0,422706.0,191319.0,302071.0
272707.0,423083.0,191341.0,302060.0
272916.0,423411.0,191341.0,302076.0
273117.0,423782.0,191357.0,302116.0
273341.0,424187.0,191364.0,302123.0
273533.0,424537.0,191399.0,302110.0
273725.0,424930.0,191395.0,302081.0
273954.0,425385.0,191386.0,302041.0
274178.0,425712.0,191365.0,302058.0
274386.0,426129.0,191367.0,302090.0
274520.0,426500.0,191397.0,302090.0
274719.0,426775.0,191426.0,302085.0
274931.0,427142.0,191413.0,302094.0
275102.0,427471.0,191431.0,302090.0
275306.0,427843.0,191410.0,302106.0
275533.0,428183.0,191367.0,302108.0
275708.0,428554.0,191400.0,302070.0
275912.0,428925.0,191386.0,302102.0
276102.0,429249.0,191405.0,302032.0
276268.0,429619.0,191430.0,302080.0
276492.0,429971.0,191415.0,302064.0
276702.0,430404.0,191425.0,302049.0
276930.0,430800.0,191434.0,302047.0
277186.0,431148.0,191414.0,302040.0
277430.0,431635.0,191449.0,302010.0
277601.0,432017.0,191421.0,302017.0
277872.0,432436.0,191416.0,301996.0
278122.0,432863.0,191440.0,301998.0
278332.0,433245.0,191441.0,301951.0
278561.0,433544.0,191406.0,301950.0
278771.0,433894.0,191422.0,301942.0
278954.0,434246.0,191419.0,301972.0
279137.0,434641.0,191448.0,301971.0
279327.0,434953.0,191424.0,301980.0
279527.0,435274.0,191432.0,301978.0
279702.0,435574.0,191430.0,301955.0
279877.0,435931.0,191449.0,301966.0
280098.0,436182.0,191453.0,301967.0
280305.0,436531.0,191454.0,301956.0
280461.0,436822.0,191447.0,301976.0
280609.0,437160.0,191493.0,301988.0
280788.0,437402.0,191464.0,301958.0
280966.0,437631.0,191481.0,301966.0
281111.0,437911.0,191476.0,301924.0
281290.0,438157.0,191492.0,301972.0
281440.0,438373.0,191513.0,301972.0
281643.0,438590.0,191472.0,301956.0
281811.0,438867.0,191516.0,301941.0
281977.0,439123.0,191498.0,301904.0
282150.0,439422.0,191514.0,301950.0
282315.0,439708.0,191505.0,301949.0
282485.0,439992.0,191474.0,301905.0
282634.0,440245.0,191483.0,301939.0
282823.0,440544.0,191499.0,301918.0
282945.0,440795.0,191522.0,301943.0
283137.0,441043.0,191518.0,301957.0
283248.0,441346.0,191483.0,301942.0
283449.0,441592.0,191519.0,301959.0
283559.0,441804.0,191510.0,301968.0
283734.0,442060.0,191513.0,301987.0
283900.0,442442.0,191537.0,301997.0
284053.0,442740.0,191527.0,301969.0
284260.0,443039.0,191538.0,301971.0
284420.0,443331.0,191539.0,301983.0
284577.0,443616.0,191534.0,301974.0
284761.0,443829.0,191537.0,301957.0
284875.0,444150.0,191557.0,301998.0
285077.0,444364.0,191555.0,302007.0
285184.0,444543.0,191537.0,301974.0
285317.0,444851.0,191530.0,302034.0
285534.0,445173.0,191568.0,301968.0
285642.0,445362.0,191541.0,302015.0
285791.0,445586.0,191539.0,301978.0
285902.0,445808.0,191532.0,301947.0
286079.0,445993.0,191521.0,301977.0
286188.0,446202.0,191560.0,301936.0
286296.0,446365.0,191516.0,301949.0
286429.0,446613.0,191519.0,301906.0
286591.0,446809.0,191538.0,301946.0
286689.0,447089.0,191532.0,301920.0
286835.0,447284.0,191501.0,301927.0
286952.0,447505.0,191543.0,301917.0
287095.0,447678.0,191528.0,301955.0
287221.0,447830.0,191529.0,301947.0
287316.0,448033.0,191560.0,301955.0
287482.0,448305.0,191525.0,301948.0
287560.0,448586.0,191506.0,301935.0
287721.0,448787.0,191571.0,301952.0
287816.0,449063.0,191529.0,301945.0
287987.0,449282.0,191577.0,301961.0
288152.0,449506.0,191555.0,301975.0
288201.0,449692.0,191549.0,301992.0
288315.0,449900.0,191565.0,302012.0
288440.0,450110.0,191567.0,301944.0
288569.0,450278.0,191565.0,301956.0
288701.0,450470.0,191548.0,301995.0
288795.0,450655.0,191555.0,301963.0
288897.0,450835.0,191561.0,302024.0
288998.0,451072.0,191538.0,302027.0
289144.0,451314.0,191530.0,301994.0
289225.0,451442.0,191562.0,301999.0
289350.0,451665.0,191574.0,301987.0
289401.0,451786.0,191545.0,302035.0
289494.0,451950.0,191570.0,302013.0
289569.0,452096.0,191503.0,302013.0
289656.0,452161.0,191562.0,302004.0
289720.0,452276.0,191518.0,302005.0
289744.0,452375.0,191499.0,301998.0
289819.0,452407.0,191472.0,301970.0
289873.0,452517.0,191474.0,301955.0
289939.0,452665.0,191439.0,301908.0
290006.0,452717.0,191412.0,301914.0
290075.0,452792.0,191436.0,301905.0
290165.0,452909.0,191406.0,301858.0
290180.0,453062.0,191405.0,301876.0
290272.0,453114.0,191413.0,301884.0
290328.0,453199.0,191415.0,301858.0
290376.0,453261.0,191406.0,301852.0
290442.0,453360.0,191396.0,301862.0
290512.0,453385.0,191406.0,301839.0
290560.0,453452.0,191391.0,301842.0
290608.0,453503.0,191390.0,301834.0
290666.0,453588.0,191386.0,301816.0
290738.0,453658.0,191404.0,301834.0
290814.0,453711.0,191351.0,301773.0
290868.0,453815.0,191372.0,301767.0
290931.0,453923.0,191387.0,301777.0
290961.0,454003.0,191362.0,301784.0
291023.0,454035.0,191347.0,301780.0
291081.0,454089.0,191375.0,301741.0
291127.0,454227.0,191327.0,301754.0
291171.0,454314.0,191312.0,301739.0
291227.0,454334.0,191322.0,301694.0
291317.0,454410.0,191335.0,301696.0
291343.0,454501.0,191311.0,301715.0
291389.0,454371.0,191298.0,301715.0
291497.0,454489.0,191325.0,301722.0
291579.0,454639.0,191306.0,301667.0
291613.0,454760.0,191331.0,301680.0
291673.0,454872.0,191329.0,301718.0
291792.0,454912.0,191312.0,301678.0
291792.0,455054.0,191338.0,301683.0
291865.0,455168.0,191372.0,301774.0
291934.0,455350.0,191342.0,301741.0
291978.0,455478.0,191358.0,301715.0
292072.0,455603.0,191372.0,301767.0
292191.0,455753.0,191379.0,301789.0
292215.0,455881.0,191413.0,301758.0
292295.0,456069.0,191403.0,301812.0
292362.0,456131.0,191427.0,301794.0
292427.0,456248.0,191457.0,301793.0
292476.0,456425.0,191431.0,301842.0
292578.0,456540.0,191430.0,301819.0
292637.0,456712.0,191433.0,301812.0
292725.0,456798.0,191464.0,301797.0
292780.0,456877.0,191481.0,301804.0
292875.0,457065.0,191439.0,301848.0
292933.0,457225.0,191480.0,301847.0
293002.0,457331.0,191474.0,301868.0
293075.0,457482.0,191475.0,301845.0
293177.0,457664.0,191485.0,301854.0
293220.0,457774.0,191509.0,301809.0
293317.0,457878.0,191492.0,301844.0
293339.0,458051.0,191496.0,301893.0
293444.0,458151.0,191493.0,301810.0
293514.0,458249.0,191522.0,301855.0
293612.0,458455.0,191499.0,301829.0
293642.0,458613.0,191484.0,301830.0
293756.0,458749.0,191453.0,301809.0
293831.0,458836.0,191442.0,301804.0
293861.0,458929.0,191459.0,301851.0
293925.0,459021.0,191396.0,301849.0
293920.0,459105.0,191405.0,301772.0
293994.0,459153.0,191372.0,301773.0
294045.0,459192.0,191363.0,301792.0
294081.0,459212.0,191327.0,301744.0
294076.0,459290.0,191293.0,301707.0
294120.0,459377.0,191294.0,301723.0
294141.0,459427.0,191302.0,301743.0
294185.0,459490.0,191286.0,301733.0
294200.0,459548.0,191280.0,301666.0
294239.0,459620.0,191280.0,301730.0
294271.0,459616.0,191257.0,301715.0
294308.0,459705.0,191277.0,301740.0
294368.0,459797.0,191240.0,301672.0
294384.0,459871.0,191240.0,301689.0
294428.0,460061.0,191265.0,301715.0
294469.0,460126.0,191242.0,301710.0
294541.0,460295.0,191249.0,301682.0
294604.0,460440.0,191207.0,301661.0
294654.0,460566.0,191156.0,301577.0
294795.0,460923.0,191109.0,301438.0
294942.0,461068.0,191096.0,301441.0
294962.0,461292.0,191126.0,301424.0
295071.0,461465.0,191086.0,301430.0
295179.0,461657.0,191119.0,301409.0
295248.0,461850.0,191100.0,301420.0
295371.0,461951.0,191145.0,301433.0
295422.0,462118.0,191099.0,301373.0
295473.0,462269.0,191111.0,301355.0
295595.0,462411.0,191105.0,301325.0
295632.0,462463.0,191095.0,301345.0
295703.0,462529.0,191079.0,301319.0
295729.0,462573.0,191062.0,301317.0
295777.0,462626.0,191104.0,301326.0
295866.0,462694.0,191088.0,301331.0
295888.0,462741.0,191073.0,301308.0
295890.0,462881.0,191041.0,301272.0
295955.0,462864.0,191061.0,301240.0
296012.0,463015.0,191050.0,301241.0
296067.0,463090.0,191006.0,301232.0
296059.0,463148.0,190978.0,301198.0
296107.0,463163.0,190970.0,301229.0
296158.0,463229.0,190979.0,301180.0
296174.0,463255.0,190929.0,301139.0
296174.0,463336.0,190914.0,301133.0
296238.0,463344.0,190906.0,301110.0
296284.0,463380.0,190864.0,301074.0
296256.0,463431.0,190838.0,301035.0
296326.0,463498.0,190810.0,301045.0
296286.0,463564.0,190777.0,300973.0
296303.0,463540.0,190762.0,300928.0
296323.0,463526.0,190745.0,300912.0
296326.0,463514.0,190729.0,300932.0
296347.0,463499.0,190707.0,300873.0
296276.0,463422.0,190648.0,300765.0
296273.0,463359.0,190622.0,300774.0
296317.0,463292.0,190569.0,300754.0
296236.0,463324.0,190568.0,300713.0
296252.0,463237.0,190558.0,300706.0
296250.0,463233.0,190494.0,300632.0
296206.0,463246.0,190470.0,300609.0
296193.0,463154.0,190430.0,300521.0
296176.0,463176.0,190438.0,300472.0
296150.0,463065.0,190356.0,300477.0
296149.0,463084.0,190373.0,300479.0
296114.0,463066.0,190342.0,300437.0
296113.0,463019.0,190334.0,300418.0
296089.0,462997.0,190333.0,300412.0
296038.0,462977.0,190313.0,300385.0
296082.0,463001.0,190292.0,300382.0
296085.0,462936.0,190289.0,300391.0
296003.0,462978.0,190280.0,300364.0
296024.0,463005.0,190311.0,300321.0
296044.0,463059.0,190314.0,300328.0
296069.0,463072.0,190290.0,300312.0
296053.0,463136.0,190249.0,300315.0
296052.0,463134.0,190277.0,300282.0
296060.0,463166.0,190261.0,300287.0
296108.0,463233.0,190291.0,300305.0
296080.0,463218.0,190273.0,300366.0
296040.0,463253.0,190326.0,300347.0
296021.0,463139.0,190315.0,300381.0
296005.0,463058.0,190305.0,300410.0
295985.0,462985.0,190345.0,300457.0
295910.0,463007.0,190334.0,300436.0
295908.0,462964.0,190339.0,300466.0
295898.0,462987.0,190325.0,300426.0
295873.0,462948.0,190322.0,300482.0
295862.0,462978.0,190318.0,300446.0
295820.0,462983.0,190315.0,300456.0
295801.0,462975.0,190339.0,300457.0
295779.0,462985.0,190338.0,300517.0
295800.0,463011.0,190311.0,300484.0
295798.0,463062.0,190321.0,300498.0
295789.0,463083.0,190329.0,300512.0
295820.0,463103.0,190296.0,300503.0
295809.0,463099.0,190290.0,300480.0
295767.0,463053.0,190309.0,300537.0
295764.0,463090.0,190299.0,300500.0
295756.0,463020.0,190297.0,300468.0
295749.0,463056.0,190270.0,300491.0
295751.0,463034.0,190273.0,300480.0
295722.0,463085.0,190285.0,300495.0
295729.0,463092.0,190259.0,300528.0
295694.0,463116.0,190269.0,300507.0
295703.0,463083.0,190282.0,300530.0
295704.0,463014.0,190265.0,300480.0
295670.0,463010.0,190263.0,300521.0
295645.0,462919.0,190265.0,300516.0
295643.0,462855.0,190239.0,300477.0
295625.0,462827.0,190227.0,300467.0
295625.0,462747.0,190236.0,300459.0
295574.0,462702.0,190184.0,300431.0
295583.0,462693.0,190210.0,300440.0
295572.0,462679.0,190199.0,300462.0
295572.0,462664.0,190192.0,300390.0
295538.0,462653.0,190194.0,300383.0
295549.0,462645.0,190182.0,300423.0
295547.0,462651.0,190165.0,300412.0
295483.0,462627.0,190150.0,300353.0
295477.0,462604.0,190132.0,300367.0
295484.0,462616.0,190174.0,300315.0
295454.0,462586.0,190149.0,300328.0
295453.0,462630.0,190122.0,300363.0
295457.0,462586.0,190128.0,300393.0
295410.0,462580.0,190124.0,300337.0
295404.0,462585.0,190148.0,300292.0
295411.0,462575.0,190118.0,300319.0
295406.0,462544.0,190133.0,300330.0
295369.0,462576.0,190129.0,300314.0
295350.0,462587.0,190092.0,300346.0
295352.0,462616.0,190060.0,300310.0
295310.0,462592.0,190071.0,300287.0
295268.0,462540.0,190073.0,300260.0
295296.0,462602.0,190045.0,300285.0
295258.0,462569.0,190015.0,300279.0
295186.0,462583.0,190019.0,300218.0
295225.0,462561.0,190008.0,300221.0
295174.0,462528.0,190009.0,300208.0
295155.0,462504.0,190030.0,300162.0
295141.0,462514.0,190007.0,300187.0
295136.0,462489.0,190025.0,300224.0
295099.0,462573.0,189996.0,300179.0
295139.0,462517.0,189984.0,300180.0
295115.0,462512.0,189957.0,300161.0
295107.0,462529.0,189955.0,300172.0
295054.0,462460.0,189942.0,300127.0
295053.0,462470.0,189934.0,300088.0
295013.0,462472.0,189918.0,300081.0
295005.0,462527.0,189929.0,300060.0
295006.0,462443.0,189888.0,300105.0
294995.0,462479.0,189883.0,300061.0
295015.0,462524.0,189878.0,300078.0
294982.0,462549.0,189886.0,300063.0
294970.0,462541.0,189853.0,300060.0
294989.0,462514.0,189850.0,300036.0
294923.0,462593.0,189818.0,299977.0
294989.0,462571.0,189805.0,299975.0
294925.0,462491.0,189783.0,299984.0
294900.0,462512.0,189810.0,299972.0
294918.0,462539.0,189792.0,299977.0
294912.0,462510.0,189749.0,299938.0
294846.0,462512.0,189738.0,299893.0
294846.0,462546.0,189705.0,299850.0
294841.0,462575.0,189724.0,299842.0
294819.0,462536.0,189668.0,299837.0
294789.0,462507.0,189624.0,299766.0
294779.0,462495.0,189661.0,299819.0
294804.0,462459.0,189646.0,299793.0
294736.0,462517.0,189656.0,299766.0
294759.0,462492.0,189657.0,299787.0
294750.0,462567.0,189630.0,299788.0
294760.0,462575.0,189629.0,299758.0
294767.0,462585.0,189619.0,299788.0
294734.0,462562.0,189647.0,299776.0
294715.0,462560.0,189587.0,299734.0
294716.0,462510.0,189581.0,299735.0
294661.0,462526.0,189616.0,299746.0
294675.0,462494.0,189607.0,299800.0
294620.0,462483.0,189610.0,299802.0
294592.0,462426.0,189628.0,299813.0
294603.0,462365.0,189624.0,299859.0
294547.0,462276.0,189634.0,299826.0
294512.0,462202.0,189631.0,299843.0
294515.0,462183.0,189604.0,299791.0
294464.0,462093.0,189588.0,299828.0
294456.0,462021.0,189582.0,299801.0
294423.0,461932.0,189581.0,299867.0
294393.0,461853.0,189605.0,299799.0
294366.0,461770.0,189615.0,299796.0
294367.0,461712.0,189579.0,299743.0
294306.0,461661.0,189570.0,299815.0
294278.0,461617.0,189559.0,299746.0
294265.0,461540.0,189519.0,299710.0
294227.0,461493.0,189487.0,299690.0
294203.0,461430.0,189521.0,299700.0
294159.0,461348.0,189510.0,299699.0
294152.0,461323.0,189514.0,299665.0
294139.0,461269.0,189526.0,299691.0
294126.0,461252.0,189467.0,299669.0
294082.0,461237.0,189485.0,299640.0
294059.0,461227.0,189462.0,299585.0
294023.0,461147.0,189446.0,299635.0
294028.0,461118.0,189430.0,299618.0
294053.0,461066.0,189442.0,299591.0
293984.0,461040.0,189439.0,299644.0
293935.0,461047.0,189407.0,299591.0
293952.0,461042.0,189403.0,299577.0
293882.0,460975.0,189401.0,299556.0
293876.0,460977.0,189379.0,299555.0
293860.0,460922.0,189373.0,299548.0
293831.0,460928.0,189397.0,299539.0
293839.0,460966.0,189397.0,299572.0
293818.0,460907.0,189401.0,299567.0
293842.0,460861.0,189392.0,299565.0
293797.0,460817.0,189386.0,299608.0
293797.0,460834.0,189379.0,299559.0
293802.0,460841.0,189390.0,299601.0
293761.0,460851.0,189378.0,299587.0
293753.0,460861.0,189384.0,299599.0
293772.0,460818.0,189384.0,299592.0
293751.0,460786.0,189414.0,299631.0
293778.0,460858.0,189443.0,299702.0
293771.0,460818.0,189451.0,299708.0
293759.0,460799.0,189452.0,299738.0
293730.0,460835.0,189447.0,299711.0
293751.0,460748.0,189453.0,299710.0
293766.0,460839.0,189482.0,299742.0
293798.0,460861.0,189452.0,299717.0
293749.0,460900.0,189464.0,299746.0
293731.0,460893.0,189475.0,299784.0
293765.0,460972.0,189437.0,299727.0
293787.0,460940.0,189462.0,299704.0
293819.0,461029.0,189442.0,299757.0
293769.0,461025.0,189448.0,299758.0
293777.0,460992.0,189436.0,299757.0
293776.0,460988.0,189436.0,299775.0
293819.0,460997.0,189436.0,299777.0
293815.0,461036.0,189436.0,299756.0
293797.0,461074.0,189456.0,299781.0
293816.0,461093.0,189481.0,299750.0
293812.0,461126.0,189428.0,299783.0
293857.0,461133.0,189416.0,299739.0
293841.0,461247.0,189437.0,299783.0
293885.0,461210.0,189450.0,299784.0
293917.0,461292.0,189493.0,299794.0
