183628.0,280787.0,172282.0,272440.0
183656.0,280780.0,172220.0,272461.0
183691.0,280835.0,172227.0,272420.0
183737.0,280868.0,172213.0,272367.0
183739.0,280930.0,172207.0,272353.0
183778.0,280925.0,172194.0,272336.0
183823.0,281029.0,172210.0,272333.0
183869.0,281133.0,172205.0,272335.0
183914.0,281225.0,172222.0,272276.0
183950.0,281271.0,172186.0,272300.0
183994.0,281344.0,172193.0,272254.0
184009.0,281464.0,172168.0,272219.0
184064.0,281507.0,172158.0,272240.0
184112.0,281605.0,172178.0,272267.0
184156.0,281713.0,172145.0,272238.0
184234.0,281810.0,172187.0,272260.0
184306.0,281903.0,172196.0,272276.0
184339.0,282031.0,172191.0,272330.0
184391.0,282156.0,172280.0,272308.0
184462.0,282307.0,172227.0,272314.0
184573.0,282439.0,172242.0,272316.0
184588.0,282609.0,172213.0,272319.0
184680.0,282687.0,172221.0,272318.0
184742.0,282793.0,172193.0,272307.0
184774.0,282926.0,172208.0,272325.0
184802.0,283054.0,172220.0,272309.0
184895.0,283086.0,172229.0,272331.0
184910.0,283199.0,172206.0,272292.0
184976.0,283310.0,172204.0,272263.0
185001.0,283372.0,172209.0,272303.0
185053.0,283448.0,172194.0,272250.0
185063.0,283515.0,172213.0,272283.0
185089.0,283533.0,172234.0,272314.0
185124.0,283563.0,172234.0,272323.0
185152.0,283631.0,172204.0,272338.0
185164.0,283666.0,172252.0,272321.0
185199.0,283790.0,172237.0,272348.0
185221.0,283817.0,172246.0,272352.0
185266.0,283832.0,172247.0,272359.0
185300.0,283930.0,172245.0,272361.0
185320.0,284017.0,172246.0,272367.0
185350.0,284031.0,172232.0,272368.0
185375.0,284114.0,172261.0,272399.0
185442.0,284217.0,172265.0,272418.0
185487.0,284356.0,172267.0,272430.0
185549.0,284414.0,172291.0,272465.0
185584.0,284515.0,172312.0,272482.0
185640.0,284650.0,172337.0,272503.0
185714.0,284779.0,172351.0,272561.0
185832.0,284931.0,172403.0,272557.0
185885.0,285102.0,172419.0,272585.0
185957.0,285260.0,172423.0,272561.0
186030.0,285367.0,172378.0,272587.0
186118.0,285556.0,172434.0,272616.0
186189.0,285722.0,172430.0,272630.0
186286.0,285862.0,172460.0,272679.0
186377.0,286040.0,172442.0,272640.0
186466.0,286193.0,172448.0,272693.0
186532.0,286366.0,172492.0,272675.0
186616.0,286490.0,172465.0,272688.0
186714.0,286656.0,172484.0,272707.0
186800.0,286814.0,172495.0,272706.0
186848.0,286912.0,172468.0,272711.0
186920.0,287048.0,172478.0,272715.0
187001.0,287139.0,172479.0,272672.0
187033.0,287239.0,172467.0,272727.0
187089.0,287358.0,172492.0,272752.0
187158.0,287482.0,172495.0,272746.0
187226.0,287628.0,172522.0,272765.0
187323.0,287747.0,172514.0,272731.0
187352.0,287858.0,172510.0,272713.0
187399.0,287896.0,172530.0,272736.0
187454.0,287979.0,172538.0,272758.0
187467.0,287986.0,172518.0,272758.0
187478.0,287995.0,172488.0,272722.0
187500.0,288001.0,172481.0,272727.0
187520.0,288015.0,172489.0,272692.0
187533.0,288008.0,172512.0,272709.0
187574.0,288008.0,172492.0,272649.0
187591.0,288114.0,172497.0,272646.0
187639.0,288121.0,172475.0,272599.0
187648.0,288130.0,172450.0,272595.0
187677.0,288165.0,172466.0,272633.0
187697.0,288180.0,172500.0,272620.0
187717.0,288270.0,172488.0,272593.0
187811.0,288356.0,172407.0,272521.0
187821.0,288389.0,172447.0,272522.0
187836.0,288395.0,172420.0,272498.0
187859.0,288487.0,172428.0,272518.0
187904.0,288522.0,172446.0,272497.0
187933.0,288616.0,172460.0,272517.0
187968.0,288652.0,172450.0,272463.0
188002.0,288709.0,172423.0,272449.0
188070.0,288743.0,172378.0,272441.0
188093.0,288855.0,172388.0,272440.0
188102.0,288859.0,172388.0,272429.0
188137.0,288880.0,172383.0,272398.0
188145.0,288983.0,172363.0,272432.0
188191.0,289049.0,172385.0,272448.0
188236.0,289118.0,172401.0,272454.0
188290.0,289213.0,172422.0,272418.0
188352.0,289300.0,172409.0,272419.0
188387.0,289402.0,172395.0,272417.0
188443.0,289489.0,172379.0,272411.0
188483.0,289561.0,172395.0,272379.0
188519.0,289622.0,172361.0,272352.0
188556.0,289688.0,172385.0,272362.0
188625.0,289771.0,172402.0,272366.0
188659.0,289816.0,172382.0,272350.0
188724.0,289875.0,172368.0,272388.0
188733.0,289990.0,172373.0,272398.0
188771.0,290006.0,172391.0,272377.0
188832.0,290068.0,172387.0,272416.0
188849.0,290159.0,172390.0,272421.0
188896.0,290237.0,172394.0,272373.0
188923.0,290280.0,172384.0,272359.0
188992.0,290414.0,172411.0,272386.0
189054.0,290511.0,172411.0,272434.0
189134.0,290632.0,172384.0,272424.0
189169.0,290792.0,172452.0,272449.0
189247.0,290866.0,172407.0,272421.0
189278.0,290981.0,172425.0,272440.0
189341.0,291039.0,172461.0,272430.0
189400.0,291108.0,172443.0,272455.0
189465.0,291234.0,172452.0,272427.0
189512.0,291354.0,172435.0,272441.0
189567.0,291403.0,172449.0,272432.0
189584.0,291507.0,172421.0,272446.0
189620.0,291518.0,172410.0,272442.0
189669.0,291602.0,172392.0,272465.0
189718.0,291667.0,172418.0,272451.0
189740.0,291759.0,172394.0,272425.0
189764.0,291777.0,172410.0,272432.0
189800.0,291883.0,172406.0,272457.0
189856.0,291982.0,172458.0,272485.0
189922.0,292068.0,172478.0,272505.0
189996.0,292160.0,172439.0,272496.0
190040.0,292289.0,172468.0,272497.0
190124.0,292449.0,172502.0,272569.0
190174.0,292572.0,172489.0,272567.0
190260.0,292687.0,172486.0,272526.0
190330.0,292814.0,172475.0,272566.0
190401.0,292894.0,172479.0,272513.0
190501.0,293105.0,172517.0,272576.0
190565.0,293270.0,172502.0,272549.0
190644.0,293356.0,172468.0,272556.0
190716.0,293468.0,172489.0,272521.0
190743.0,293514.0,172458.0,272502.0
190788.0,293567.0,172438.0,272455.0
190783.0,293582.0,172383.0,272368.0
190834.0,293612.0,172355.0,272330.0
190838.0,293552.0,172332.0,272317.0
190829.0,293555.0,172312.0,272240.0
190874.0,293512.0,172320.0,272148.0
190866.0,293461.0,172302.0,272233.0
190850.0,293411.0,172267.0,272223.0
190831.0,293396.0,172263.0,272173.0
190842.0,293351.0,172279.0,272210.0
190854.0,293350.0,172270.0,272161.0
190858.0,293315.0,172272.0,272173.0
190836.0,293354.0,172259.0,272137.0
190874.0,293309.0,172233.0,272175.0
190857.0,293353.0,172227.0,272094.0
190895.0,293322.0,172204.0,272046.0
190911.0,293368.0,172197.0,272016.0
190913.0,293377.0,172158.0,272018.0
190963.0,293380.0,172148.0,271989.0
190938.0,293370.0,172109.0,271972.0
190955.0,293342.0,172092.0,271922.0
190925.0,293354.0,172076.0,271890.0
190993.0,293325.0,172063.0,271850.0
190972.0,293297.0,172041.0,271798.0
190959.0,293260.0,171994.0,271757.0
190918.0,293217.0,171962.0,271716.0
190894.0,293206.0,171930.0,271635.0
190890.0,293130.0,171890.0,271607.0
190876.0,293101.0,171859.0,271645.0
190865.0,293030.0,171888.0,271606.0
190848.0,292992.0,171835.0,271590.0
190865.0,292967.0,171853.0,271599.0
190842.0,292947.0,171846.0,271635.0
190864.0,292954.0,171861.0,271571.0
190841.0,292928.0,171846.0,271540.0
190823.0,292846.0,171805.0,271548.0
190786.0,292817.0,171767.0,271543.0
190777.0,292694.0,171770.0,271461.0
190735.0,292689.0,171747.0,271474.0
190750.0,292570.0,171704.0,271503.0
190680.0,292542.0,171720.0,271461.0
190704.0,292534.0,171721.0,271429.0
190699.0,292500.0,171739.0,271433.0
190749.0,292515.0,171716.0,271406.0
190703.0,292464.0,171696.0,271450.0
190683.0,292462.0,171712.0,271442.0
190682.0,292439.0,171694.0,271433.0
190680.0,292451.0,171668.0,271436.0
190652.0,292399.0,171709.0,271462.0
190678.0,292394.0,171707.0,271480.0
190687.0,292438.0,171710.0,271494.0
190705.0,292490.0,171739.0,271518.0
190737.0,292473.0,171734.0,271520.0
190772.0,292540.0,171751.0,271550.0
190815.0,292608.0,171775.0,271570.0
190804.0,292655.0,171780.0,271574.0
190836.0,292696.0,171794.0,271619.0
190880.0,292750.0,171773.0,271594.0
190891.0,292820.0,171787.0,271605.0
190919.0,292861.0,171798.0,271604.0
190961.0,292965.0,171813.0,271627.0
191031.0,293057.0,171813.0,271684.0
191110.0,293144.0,171824.0,271662.0
191152.0,293213.0,171817.0,271666.0
191184.0,293303.0,171815.0,271670.0
191236.0,293386.0,171827.0,271665.0
191301.0,293474.0,171850.0,271672.0
191342.0,293573.0,171861.0,271728.0
191383.0,293603.0,171865.0,271757.0
191434.0,293700.0,171876.0,271805.0
191492.0,293784.0,171894.0,271796.0
191544.0,293938.0,171887.0,271783.0
191618.0,293960.0,171885.0,271815.0
191640.0,294061.0,171886.0,271801.0
191677.0,294144.0,171903.0,271816.0
191730.0,294264.0,171883.0,271790.0
191753.0,294302.0,171906.0,271781.0
191780.0,294382.0,171893.0,271870.0
191847.0,294490.0,171940.0,271903.0
191907.0,294572.0,171954.0,271884.0
191959.0,294681.0,171968.0,271924.0
192000.0,294796.0,171982.0,271962.0
192027.0,294862.0,172003.0,271985.0
192114.0,294953.0,172016.0,271993.0
192114.0,294966.0,171979.0,271982.0
192134.0,295028.0,172019.0,272010.0
192190.0,295088.0,172024.0,272039.0
192220.0,295154.0,172043.0,272053.0
192252.0,295200.0,172040.0,272023.0
192241.0,295236.0,172023.0,272034.0
192274.0,295238.0,172058.0,272068.0
192278.0,295219.0,172036.0,272056.0
192269.0,295200.0,172079.0,272065.0
192260.0,295180.0,172031.0,272068.0
192256.0,295163.0,172055.0,272035.0
192265.0,295153.0,172048.0,272077.0
192291.0,295151.0,172051.0,272066.0
192276.0,295147.0,172084.0,272090.0
192328.0,295239.0,172078.0,272113.0
192362.0,295354.0,172128.0,272114.0
192412.0,295369.0,172163.0,272167.0
192476.0,295514.0,172180.0,272201.0
192536.0,295602.0,172188.0,272223.0
192600.0,295727.0,172212.0,272245.0
192661.0,295831.0,172234.0,272267.0
192685.0,295900.0,172211.0,272261.0
192722.0,295961.0,172208.0,272288.0
192801.0,296056.0,172181.0,272316.0
192798.0,296129.0,172219.0,272251.0
192864.0,296200.0,172220.0,272324.0
192916.0,296294.0,172243.0,272343.0
192969.0,296379.0,172238.0,272369.0
193000.0,296504.0,172272.0,272354.0
193064.0,296634.0,172246.0,272402.0
193120.0,296733.0,172320.0,272428.0
193201.0,296870.0,172327.0,272468.0
193274.0,296996.0,172322.0,272481.0
193338.0,297143.0,172333.0,272482.0
193423.0,297246.0,172352.0,272504.0
193495.0,297365.0,172334.0,272458.0
193533.0,297508.0,172354.0,272477.0
193592.0,297617.0,172347.0,272477.0
193658.0,297715.0,172340.0,272510.0
193689.0,297823.0,172351.0,272520.0
193785.0,297974.0,172385.0,272551.0
193868.0,298109.0,172400.0,272550.0
193923.0,298206.0,172408.0,272580.0
193991.0,298301.0,172411.0,272576.0
194041.0,298402.0,172417.0,272606.0
194115.0,298496.0,172445.0,272674.0
194160.0,298615.0,172447.0,272651.0
194215.0,298719.0,172462.0,272672.0
194272.0,298854.0,172458.0,272686.0
194316.0,298980.0,172497.0,272645.0
194375.0,299123.0,172475.0,272631.0
194453.0,299221.0,172478.0,272702.0
194484.0,299264.0,172461.0,272721.0
194560.0,299373.0,172467.0,272709.0
194585.0,299418.0,172461.0,272699.0
194655.0,299517.0,172475.0,272707.0
194673.0,299607.0,172512.0,272670.0
194716.0,299674.0,172476.0,272697.0
194773.0,299788.0,172480.0,272699.0
194805.0,299885.0,172472.0,272723.0
194852.0,299944.0,172492.0,272715.0
194875.0,300023.0,172482.0,272730.0
194934.0,300163.0,172527.0,272724.0
194983.0,300233.0,172488.0,272761.0
195050.0,300392.0,172531.0,272814.0
195120.0,300479.0,172514.0,272841.0
195163.0,300605.0,172544.0,272836.0
195226.0,300672.0,172532.0,272847.0
195293.0,300759.0,172556.0,272835.0
195334.0,300840.0,172533.0,272817.0
195344.0,300907.0,172550.0,272855.0
195386.0,301002.0,172541.0,272886.0
195448.0,301109.0,172590.0,272912.0
195495.0,301198.0,172584.0,272966.0
195548.0,301300.0,172612.0,272942.0
195591.0,301366.0,172581.0,272935.0
195588.0,301468.0,172562.0,272927.0
195641.0,301527.0,172593.0,272908.0
195695.0,301588.0,172589.0,273013.0
195717.0,301691.0,172592.0,272980.0
195766.0,301775.0,172623.0,272959.0
195838.0,301836.0,172622.0,273035.0
195861.0,301931.0,172627.0,273045.0
195892.0,302017.0,172651.0,273062.0
195924.0,302133.0,172619.0,273064.0
196016.0,302199.0,172663.0,273048.0
196001.0,302254.0,172643.0,273073.0
196061.0,302280.0,172642.0,273084.0
196076.0,302309.0,172649.0,273102.0
196069.0,302308.0,172617.0,273043.0
196107.0,302300.0,172621.0,273083.0
196114.0,302310.0,172567.0,273006.0
196105.0,302255.0,172616.0,273011.0
196099.0,302205.0,172587.0,272958.0
196051.0,302155.0,172552.0,272927.0
196051.0,302154.0,172566.0,272908.0
196031.0,302103.0,172564.0,272891.0
196036.0,302098.0,172562.0,272944.0
196065.0,302079.0,172589.0,272975.0
196074.0,302155.0,172555.0,272975.0
196102.0,302187.0,172566.0,272981.0
196136.0,302225.0,172567.0,272982.0
196141.0,302278.0,172595.0,272981.0
196190.0,302370.0,172589.0,273042.0
196224.0,302393.0,172633.0,273043.0
196273.0,302523.0,172628.0,273065.0
196325.0,302610.0,172623.0,273058.0
196394.0,302697.0,172641.0,273096.0
196401.0,302814.0,172685.0,273115.0
196539.0,302976.0,172699.0,273172.0
196533.0,303092.0,172713.0,273153.0
196634.0,303174.0,172685.0,273132.0
196636.0,303221.0,172684.0,273139.0
196689.0,303225.0,172668.0,273139.0
196724.0,303323.0,172646.0,273126.0
196720.0,303350.0,172643.0,273137.0
196739.0,303420.0,172654.0,273150.0
196788.0,303486.0,172672.0,273197.0
196805.0,303543.0,172685.0,273244.0
196860.0,303598.0,172710.0,273279.0
196880.0,303676.0,172734.0,273282.0
196905.0,303731.0,172749.0,273307.0
196949.0,303764.0,172758.0,273272.0
196979.0,303853.0,172730.0,273319.0
197012.0,303847.0,172701.0,273307.0
197017.0,303971.0,172767.0,273311.0
197092.0,304056.0,172771.0,273337.0
197129.0,304106.0,172746.0,273348.0
197183.0,304194.0,172773.0,273353.0
197200.0,304260.0,172787.0,273408.0
197245.0,304352.0,172774.0,273354.0
197285.0,304424.0,172790.0,273377.0
197335.0,304479.0,172778.0,273395.0
197365.0,304598.0,172833.0,273417.0
197427.0,304720.0,172824.0,273396.0
197498.0,304792.0,172793.0,273440.0
197545.0,304895.0,172817.0,273498.0
197585.0,305035.0,172825.0,273484.0
197650.0,305112.0,172865.0,273507.0
197721.0,305232.0,172890.0,273522.0
197779.0,305376.0,172915.0,273576.0
197910.0,305662.0,172954.0,273675.0
198004.0,305791.0,172961.0,273658.0
198060.0,305908.0,172965.0,273658.0
198143.0,306052.0,172989.0,273655.0
198211.0,306182.0,173000.0,273702.0
198261.0,306297.0,173038.0,273708.0
198350.0,306459.0,173072.0,273799.0
198415.0,306632.0,173051.0,273872.0
198504.0,306736.0,173086.0,273867.0
198570.0,306962.0,173088.0,273924.0
198646.0,307093.0,173098.0,273911.0
198726.0,307249.0,173129.0,273930.0
198816.0,307471.0,173134.0,273941.0
198868.0,307594.0,173158.0,273988.0
198939.0,307758.0,173170.0,273949.0
199034.0,307902.0,173178.0,273988.0
199133.0,308010.0,173151.0,273942.0
199196.0,308140.0,173169.0,273962.0
199248.0,308270.0,173199.0,274032.0
199299.0,308427.0,173205.0,274034.0
199414.0,308576.0,173224.0,274090.0
199485.0,308712.0,173198.0,274050.0
199535.0,308839.0,173206.0,274094.0
199582.0,308980.0,173233.0,274049.0
199674.0,309087.0,173242.0,274110.0
199735.0,309219.0,173243.0,274118.0
199774.0,309378.0,173220.0,274056.0
199852.0,309458.0,173252.0,274121.0
199930.0,309552.0,173241.0,274110.0
199978.0,309686.0,173282.0,274104.0
200028.0,309786.0,173286.0,274154.0
200077.0,309876.0,173304.0,274137.0
200127.0,309958.0,173310.0,274152.0
200144.0,309964.0,173309.0,274144.0
200233.0,310032.0,173299.0,274162.0
200238.0,310044.0,173317.0,274153.0
200254.0,310105.0,173340.0,274163.0
200307.0,310083.0,173319.0,274154.0
200303.0,310108.0,173309.0,274126.0
200331.0,310145.0,173371.0,274193.0
200351.0,310188.0,173353.0,274181.0
200390.0,310299.0,173374.0,274186.0
200475.0,310361.0,173401.0,274208.0
200500.0,310525.0,173399.0,274236.0
200576.0,310581.0,173406.0,274243.0
200647.0,310716.0,173422.0,274232.0
200654.0,310816.0,173441.0,274266.0
200745.0,310958.0,173456.0,274261.0
200821.0,311034.0,173470.0,274293.0
200846.0,311123.0,173478.0,274295.0
200906.0,311221.0,173477.0,274311.0
200984.0,311323.0,173515.0,274334.0
201013.0,311406.0,173513.0,274372.0
201048.0,311529.0,173544.0,274336.0
201087.0,311613.0,173545.0,274379.0
201139.0,311700.0,173573.0,274410.0
201165.0,311767.0,173559.0,274376.0
201199.0,311850.0,173534.0,274367.0
201256.0,311853.0,173565.0,274381.0
201244.0,311861.0,173537.0,274387.0
201250.0,311916.0,173531.0,274330.0
201271.0,311921.0,173533.0,274386.0
201317.0,311961.0,173525.0,274406.0
201332.0,311986.0,173569.0,274386.0
201352.0,312060.0,173549.0,274447.0
201402.0,312144.0,173590.0,274431.0
201428.0,312203.0,173558.0,274439.0
201464.0,312217.0,173571.0,274415.0
201467.0,312274.0,173572.0,274383.0
201529.0,312349.0,173583.0,274450.0
201568.0,312413.0,173573.0,274450.0
201596.0,312505.0,173587.0,274437.0
201623.0,312582.0,173618.0,274484.0
201678.0,312683.0,173606.0,274498.0
201713.0,312749.0,173662.0,274457.0
201729.0,312826.0,173624.0,274491.0
201784.0,312855.0,173602.0,274512.0
201814.0,312915.0,173646.0,274531.0
201832.0,312992.0,173639.0,274571.0
201908.0,313045.0,173654.0,274531.0
201910.0,313097.0,173651.0,274528.0
201972.0,313172.0,173664.0,274545.0
202018.0,313255.0,173660.0,274541.0
202003.0,313299.0,173677.0,274541.0
202075.0,313397.0,173670.0,274582.0
202099.0,313453.0,173637.0,274591.0
202143.0,313534.0,173692.0,274609.0
202203.0,313638.0,173685.0,274628.0
202269.0,313706.0,173702.0,274606.0
202282.0,313813.0,173727.0,274653.0
202342.0,313870.0,173714.0,274717.0
202343.0,313958.0,173728.0,274680.0
202413.0,314079.0,173730.0,274726.0
202453.0,314138.0,173757.0,274708.0
202509.0,314223.0,173748.0,274731.0
202517.0,314301.0,173773.0,274734.0
202572.0,314371.0,173775.0,274749.0
202622.0,314460.0,173776.0,274730.0
202675.0,314532.0,173779.0,274779.0
202714.0,314655.0,173796.0,274759.0
202735.0,314693.0,173774.0,274775.0
202766.0,314750.0,173786.0,274794.0
202817.0,314838.0,173781.0,274826.0
202857.0,314884.0,173793.0,274753.0
202913.0,314950.0,173801.0,274795.0
202940.0,315056.0,173778.0,274817.0
202969.0,315087.0,173816.0,274768.0
202999.0,315196.0,173813.0,274798.0
203075.0,315279.0,173786.0,274849.0
203108.0,315372.0,173822.0,274790.0
203154.0,315472.0,173818.0,274841.0
203185.0,315479.0,173829.0,274865.0
203182.0,315503.0,173815.0,274831.0
203207.0,315473.0,173826.0,274826.0
203182.0,315425.0,173802.0,274824.0
203224.0,315385.0,173817.0,274780.0
203213.0,315397.0,173848.0,274849.0
203214.0,315346.0,173863.0,274828.0
203209.0,315301.0,173826.0,274845.0
203201.0,315291.0,173860.0,274829.0
203234.0,315257.0,173847.0,274827.0
203202.0,315238.0,173873.0,274836.0
203212.0,315251.0,173851.0,274817.0
203218.0,315222.0,173842.0,274828.0
203242.0,315225.0,173884.0,274865.0
203246.0,315242.0,173892.0,274875.0
203271.0,315280.0,173888.0,274871.0
203294.0,315281.0,173918.0,274899.0
203275.0,315360.0,173920.0,274916.0
203325.0,315367.0,173941.0,274905.0
203354.0,315434.0,173900.0,274834.0
203364.0,315470.0,173913.0,274857.0
