228545.0,336390.0,181647.0,283405.0
228595.0,336528.0,181661.0,283413.0
228639.0,336643.0,181681.0,283432.0
228724.0,336751.0,181738.0,283530.0
228807.0,336923.0,181754.0,283554.0
228864.0,337095.0,181784.0,283615.0
228916.0,337166.0,181809.0,283684.0
228962.0,337271.0,181851.0,283693.0
229039.0,337379.0,181859.0,283731.0
229070.0,337441.0,181892.0,283745.0
229112.0,337543.0,181882.0,283660.0
229162.0,337592.0,181826.0,283586.0
229188.0,337697.0,181827.0,283543.0
229238.0,337780.0,181768.0,283469.0
229297.0,337754.0,181719.0,283421.0
229301.0,337773.0,181740.0,283355.0
229319.0,337770.0,181709.0,283336.0
229360.0,337760.0,181710.0,283296.0
229327.0,337774.0,181676.0,283275.0
229356.0,337729.0,181659.0,283235.0
229345.0,337752.0,181621.0,283201.0
229377.0,337712.0,181608.0,283155.0
229361.0,337757.0,181593.0,283133.0
229399.0,337747.0,181562.0,283090.0
229400.0,337762.0,181549.0,283051.0
229434.0,337830.0,181534.0,283062.0
229419.0,337879.0,181538.0,283058.0
229461.0,337860.0,181538.0,283037.0
229462.0,337909.0,181516.0,283056.0
229523.0,337972.0,181549.0,283076.0
229536.0,338015.0,181533.0,283080.0
229559.0,338098.0,181544.0,283032.0
229624.0,338164.0,181519.0,282980.0
229625.0,338203.0,181536.0,282970.0
229674.0,338339.0,181514.0,283011.0
229743.0,338396.0,181544.0,283019.0
229779.0,338477.0,181532.0,283016.0
229797.0,338562.0,181554.0,283034.0
229838.0,338626.0,181564.0,283051.0
229853.0,338696.0,181545.0,283069.0
229866.0,338768.0,181535.0,283023.0
229943.0,338776.0,181546.0,283020.0
229992.0,338880.0,181524.0,283026.0
229981.0,339001.0,181546.0,283022.0
230004.0,338996.0,181542.0,283053.0
230034.0,339074.0,181557.0,283076.0
230080.0,339134.0,181585.0,283082.0
230077.0,339233.0,181626.0,283094.0
230127.0,339342.0,181573.0,283107.0
230174.0,339355.0,181606.0,283124.0
230202.0,339399.0,181606.0,283203.0
230189.0,339473.0,181597.0,283166.0
230270.0,339567.0,181622.0,283150.0
230282.0,339635.0,181612.0,283153.0
230324.0,339728.0,181629.0,283167.0
230362.0,339792.0,181646.0,283174.0
230447.0,339850.0,181628.0,283201.0
230460.0,339913.0,181703.0,283257.0
230519.0,340017.0,181667.0,283269.0
230567.0,340124.0,181761.0,283307.0
230624.0,340232.0,181761.0,283345.0
230661.0,340273.0,181742.0,283251.0
230714.0,340418.0,181768.0,283224.0
230785.0,340564.0,181709.0,283225.0
230858.0,340736.0,181751.0,283260.0
230903.0,340860.0,181758.0,283180.0
231001.0,340900.0,181729.0,283149.0
231001.0,341020.0,181752.0,283194.0
231057.0,341077.0,181748.0,283254.0
231120.0,341209.0,181773.0,283229.0
231144.0,341325.0,181726.0,283249.0
231172.0,341393.0,181746.0,283261.0
231253.0,341481.0,181772.0,283245.0
231282.0,341620.0,181748.0,283242.0
231318.0,341657.0,181787.0,283251.0
231386.0,341771.0,181778.0,283222.0
231426.0,341906.0,181794.0,283272.0
231491.0,341953.0,181798.0,283294.0
231528.0,342034.0,181815.0,283335.0
231541.0,342160.0,181807.0,283334.0
231556.0,342240.0,181849.0,283355.0
231654.0,342266.0,181833.0,283350.0
231640.0,342379.0,181809.0,283386.0
231727.0,342468.0,181832.0,283376.0
231760.0,342551.0,181845.0,283351.0
231819.0,342659.0,181842.0,283358.0
231871.0,342765.0,181863.0,283335.0
231897.0,342850.0,181881.0,283349.0
231953.0,342938.0,181880.0,283352.0
231955.0,342966.0,181889.0,283372.0
232005.0,343023.0,181883.0,283427.0
232045.0,343093.0,181896.0,283394.0
232066.0,343126.0,181885.0,283380.0
232085.0,343103.0,181915.0,283406.0
232090.0,343113.0,181908.0,283420.0
232085.0,343119.0,181955.0,283458.0
232055.0,343082.0,181965.0,283480.0
232109.0,343052.0,181986.0,283552.0
232053.0,343012.0,181995.0,283583.0
232002.0,343028.0,182033.0,283583.0
232063.0,343013.0,182021.0,283618.0
232067.0,343041.0,182062.0,283689.0
232030.0,343012.0,182070.0,283677.0
232051.0,343059.0,182095.0,283660.0
232055.0,343039.0,182076.0,283698.0
232076.0,343025.0,182082.0,283735.0
232093.0,343128.0,182098.0,283735.0
232108.0,343134.0,182117.0,283754.0
232092.0,343168.0,182145.0,283750.0
232131.0,343178.0,182117.0,283765.0
232149.0,343205.0,182150.0,283819.0
232112.0,343336.0,182167.0,283790.0
232181.0,343381.0,182192.0,283855.0
232197.0,343404.0,182189.0,283919.0
232222.0,343427.0,182231.0,283950.0
232207.0,343515.0,182276.0,284014.0
232226.0,343554.0,182273.0,284035.0
232247.0,343575.0,182283.0,284072.0
232234.0,343557.0,182285.0,284122.0
232231.0,343668.0,182284.0,284140.0
232283.0,343637.0,182315.0,284169.0
232282.0,343698.0,182310.0,284170.0
232291.0,343705.0,182336.0,284230.0
232310.0,343746.0,182339.0,284271.0
232314.0,343776.0,182331.0,284243.0
232313.0,343817.0,182331.0,284256.0
232365.0,343798.0,182313.0,284257.0
232349.0,343836.0,182307.0,284245.0
232399.0,343895.0,182315.0,284237.0
232370.0,343937.0,182325.0,284192.0
232409.0,343983.0,182317.0,284285.0
232417.0,344010.0,182351.0,284291.0
232454.0,344057.0,182367.0,284303.0
232466.0,344182.0,182348.0,284336.0
232481.0,344215.0,182390.0,284363.0
232536.0,344259.0,182395.0,284364.0
232546.0,344348.0,182361.0,284354.0
232588.0,344441.0,182389.0,284333.0
232645.0,344549.0,182403.0,284312.0
232654.0,344647.0,182412.0,284288.0
232758.0,344715.0,182419.0,284352.0
232772.0,344807.0,182416.0,284329.0
232802.0,344894.0,182439.0,284345.0
232863.0,345013.0,182407.0,284358.0
232895.0,345048.0,182388.0,284322.0
232891.0,345113.0,182405.0,284371.0
232955.0,345191.0,182403.0,284369.0
232998.0,345248.0,182422.0,284383.0
233006.0,345341.0,182412.0,284392.0
233057.0,345414.0,182437.0,284412.0
233076.0,345480.0,182458.0,284400.0
233119.0,345555.0,182471.0,284510.0
233158.0,345680.0,182490.0,284496.0
233226.0,345732.0,182519.0,284575.0
233235.0,345831.0,182560.0,284566.0
233276.0,345921.0,182587.0,284617.0
233328.0,346006.0,182582.0,284669.0
233336.0,346085.0,182576.0,284684.0
233426.0,346230.0,182594.0,284667.0
233441.0,346277.0,182649.0,284739.0
233462.0,346366.0,182613.0,284693.0
233475.0,346452.0,182591.0,284729.0
233526.0,346482.0,182589.0,284673.0
233545.0,346554.0,182552.0,284675.0
233559.0,346651.0,182500.0,284618.0
233602.0,346675.0,182482.0,284568.0
233643.0,346754.0,182442.0,284480.0
233674.0,346716.0,182422.0,284461.0
233724.0,346771.0,182401.0,284454.0
233719.0,346755.0,182361.0,284391.0
233720.0,346738.0,182378.0,284415.0
233713.0,346669.0,182333.0,284372.0
233742.0,346691.0,182349.0,284365.0
233702.0,346589.0,182357.0,284369.0
233689.0,346557.0,182327.0,284333.0
233659.0,346493.0,182299.0,284335.0
233679.0,346477.0,182306.0,284278.0
233702.0,346469.0,182301.0,284278.0
233696.0,346416.0,182283.0,284261.0
233685.0,346456.0,182269.0,284283.0
233675.0,346385.0,182294.0,284346.0
233669.0,346402.0,182296.0,284321.0
233673.0,346416.0,182291.0,284359.0
233723.0,346441.0,182261.0,284380.0
233692.0,346425.0,182317.0,284362.0
233701.0,346498.0,182320.0,284371.0
233726.0,346517.0,182296.0,284314.0
233729.0,346555.0,182307.0,284385.0
233761.0,346610.0,182331.0,284371.0
233796.0,346675.0,182330.0,284374.0
233848.0,346709.0,182321.0,284391.0
233869.0,346721.0,182325.0,284385.0
233825.0,346800.0,182320.0,284352.0
233875.0,346828.0,182312.0,284339.0
233908.0,346867.0,182276.0,284365.0
233922.0,346950.0,182250.0,284336.0
233978.0,346932.0,182276.0,284342.0
233919.0,347023.0,182251.0,284312.0
233974.0,346999.0,182245.0,284361.0
233988.0,347029.0,182225.0,284364.0
233979.0,347044.0,182238.0,284340.0
234042.0,347088.0,182213.0,284365.0
234024.0,347082.0,182230.0,284339.0
234053.0,347131.0,182239.0,284364.0
234081.0,347122.0,182239.0,284371.0
234071.0,347162.0,182227.0,284376.0
234080.0,347223.0,182257.0,284383.0
234136.0,347259.0,182282.0,284351.0
234135.0,347325.0,182303.0,284410.0
234179.0,347384.0,182285.0,284429.0
234208.0,347419.0,182320.0,284442.0
234225.0,347493.0,182338.0,284444.0
234233.0,347541.0,182337.0,284467.0
234264.0,347639.0,182359.0,284478.0
234304.0,347689.0,182380.0,284500.0
234365.0,347741.0,182396.0,284500.0
234395.0,347827.0,182388.0,284537.0
234381.0,347933.0,182395.0,284550.0
234407.0,347955.0,182425.0,284506.0
234468.0,348021.0,182407.0,284587.0
234468.0,348079.0,182434.0,284569.0
234527.0,348161.0,182433.0,284619.0
234551.0,348232.0,182437.0,284594.0
234576.0,348258.0,182430.0,284558.0
234588.0,348343.0,182445.0,284624.0
234639.0,348376.0,182467.0,284627.0
234656.0,348446.0,182449.0,284615.0
234667.0,348573.0,182446.0,284613.0
234719.0,348550.0,182489.0,284659.0
234750.0,348668.0,182474.0,284676.0
234778.0,348712.0,182473.0,284644.0
234797.0,348769.0,182480.0,284635.0
234834.0,348838.0,182492.0,284702.0
234899.0,348948.0,182513.0,284716.0
234918.0,349020.0,182497.0,284705.0
234915.0,349094.0,182548.0,284730.0
234980.0,349161.0,182578.0,284757.0
234975.0,349197.0,182533.0,284741.0
235049.0,349322.0,182519.0,284704.0
235083.0,349354.0,182545.0,284731.0
235072.0,349393.0,182507.0,284748.0
235105.0,349444.0,182516.0,284733.0
235147.0,349478.0,182545.0,284745.0
235159.0,349474.0,182525.0,284763.0
235167.0,349409.0,182516.0,284730.0
235170.0,349397.0,182515.0,284741.0
235143.0,349355.0,182507.0,284691.0
235149.0,349315.0,182511.0,284702.0
235150.0,349219.0,182512.0,284694.0
235117.0,349217.0,182520.0,284735.0
235098.0,349124.0,182527.0,284684.0
235079.0,349029.0,182466.0,284696.0
235068.0,349026.0,182522.0,284706.0
235032.0,348962.0,182532.0,284705.0
235015.0,348963.0,182530.0,284677.0
235027.0,348927.0,182519.0,284700.0
234999.0,348872.0,182512.0,284670.0
235025.0,348901.0,182457.0,284686.0
234999.0,348899.0,182476.0,284659.0
235006.0,348809.0,182476.0,284641.0
234996.0,348896.0,182483.0,284636.0
234978.0,348861.0,182466.0,284706.0
235013.0,348867.0,182483.0,284694.0
234981.0,348914.0,182447.0,284671.0
235000.0,348889.0,182491.0,284645.0
235013.0,348900.0,182461.0,284673.0
235018.0,348934.0,182454.0,284689.0
235027.0,348963.0,182458.0,284668.0
235017.0,348992.0,182451.0,284666.0
235073.0,349074.0,182487.0,284688.0
235088.0,349037.0,182504.0,284721.0
235115.0,349097.0,182502.0,284771.0
235088.0,349127.0,182523.0,284753.0
235107.0,349107.0,182551.0,284751.0
235090.0,349136.0,182558.0,284781.0
235103.0,349124.0,182527.0,284789.0
235115.0,349118.0,182537.0,284750.0
235154.0,349158.0,182519.0,284783.0
235142.0,349200.0,182530.0,284783.0
235138.0,349218.0,182544.0,284792.0
235131.0,349175.0,182531.0,284749.0
235150.0,349209.0,182515.0,284769.0
235178.0,349216.0,182509.0,284710.0
235175.0,349183.0,182495.0,284719.0
235158.0,349216.0,182507.0,284754.0
235162.0,349271.0,182482.0,284747.0
235168.0,349249.0,182448.0,284700.0
235179.0,349284.0,182434.0,284669.0
235187.0,349260.0,182428.0,284620.0
235207.0,349325.0,182423.0,284600.0
235194.0,349322.0,182392.0,284591.0
235215.0,349356.0,182347.0,284595.0
235214.0,349359.0,182367.0,284560.0
235259.0,349451.0,182348.0,284604.0
235294.0,349433.0,182362.0,284537.0
235278.0,349493.0,182351.0,284529.0
235307.0,349533.0,182352.0,284568.0
235359.0,349571.0,182320.0,284523.0
235330.0,349600.0,182362.0,284540.0
235359.0,349663.0,182403.0,284576.0
235381.0,349711.0,182376.0,284590.0
235439.0,349748.0,182370.0,284578.0
235479.0,349838.0,182350.0,284607.0
235498.0,349876.0,182370.0,284541.0
235512.0,349940.0,182381.0,284562.0
235508.0,349992.0,182412.0,284578.0
235556.0,350047.0,182410.0,284560.0
235620.0,350090.0,182425.0,284585.0
235624.0,350146.0,182423.0,284618.0
235635.0,350221.0,182436.0,284607.0
235673.0,350258.0,182426.0,284682.0
235717.0,350333.0,182409.0,284617.0
235711.0,350365.0,182427.0,284657.0
235772.0,350403.0,182443.0,284697.0
235790.0,350482.0,182495.0,284710.0
235799.0,350483.0,182475.0,284715.0
235806.0,350507.0,182485.0,284722.0
235789.0,350516.0,182483.0,284703.0
235827.0,350442.0,182477.0,284729.0
235815.0,350374.0,182470.0,284725.0
235785.0,350360.0,182504.0,284693.0
235746.0,350255.0,182517.0,284722.0
235754.0,350196.0,182502.0,284712.0
235701.0,350067.0,182507.0,284656.0
235670.0,350008.0,182477.0,284703.0
235657.0,349932.0,182487.0,284692.0
235573.0,349814.0,182489.0,284697.0
235556.0,349722.0,182478.0,284662.0
235516.0,349627.0,182544.0,284659.0
235516.0,349604.0,182518.0,284667.0
235470.0,349520.0,182473.0,284666.0
235485.0,349515.0,182476.0,284669.0
235442.0,349453.0,182498.0,284696.0
235420.0,349402.0,182522.0,284721.0
235398.0,349427.0,182515.0,284714.0
235385.0,349393.0,182514.0,284689.0
235424.0,349332.0,182484.0,284694.0
235351.0,349363.0,182505.0,284667.0
235357.0,349361.0,182481.0,284696.0
235360.0,349385.0,182505.0,284696.0
235325.0,349340.0,182487.0,284694.0
235354.0,349361.0,182514.0,284700.0
235357.0,349321.0,182497.0,284685.0
235350.0,349366.0,182480.0,284657.0
235385.0,349337.0,182471.0,284690.0
235326.0,349340.0,182471.0,284667.0
235317.0,349349.0,182484.0,284687.0
235320.0,349324.0,182507.0,284712.0
235336.0,349348.0,182479.0,284686.0
235350.0,349312.0,182530.0,284730.0
235320.0,349340.0,182503.0,284741.0
235329.0,349350.0,182525.0,284735.0
235315.0,349346.0,182524.0,284711.0
235260.0,349363.0,182526.0,284725.0
235337.0,349335.0,182531.0,284730.0
235324.0,349330.0,182535.0,284741.0
235318.0,349361.0,182568.0,284698.0
235305.0,349370.0,182541.0,284742.0
235308.0,349311.0,182553.0,284734.0
235309.0,349304.0,182543.0,284771.0
235310.0,349362.0,182552.0,284737.0
235318.0,349376.0,182569.0,284760.0
235313.0,349350.0,182544.0,284740.0
235309.0,349389.0,182566.0,284741.0
235314.0,349429.0,182535.0,284732.0
235363.0,349446.0,182562.0,284753.0
235348.0,349537.0,182548.0,284730.0
235345.0,349560.0,182590.0,284746.0
235416.0,349601.0,182560.0,284770.0
235461.0,349658.0,182622.0,284739.0
235434.0,349698.0,182597.0,284755.0
235441.0,349775.0,182612.0,284768.0
235483.0,349849.0,182617.0,284780.0
235516.0,349858.0,182635.0,284827.0
235514.0,349920.0,182625.0,284800.0
235566.0,349945.0,182635.0,284801.0
235560.0,349989.0,182630.0,284798.0
235558.0,350076.0,182638.0,284794.0
235587.0,350110.0,182630.0,284819.0
235603.0,350119.0,182634.0,284820.0
235596.0,350185.0,182638.0,284819.0
235645.0,350236.0,182613.0,284858.0
235652.0,350261.0,182622.0,284819.0
235713.0,350340.0,182632.0,284854.0
235685.0,350369.0,182621.0,284867.0
235702.0,350382.0,182636.0,284844.0
235722.0,350457.0,182651.0,284863.0
235747.0,350411.0,182619.0,284871.0
235757.0,350475.0,182643.0,284854.0
235762.0,350533.0,182616.0,284840.0
235774.0,350541.0,182635.0,284857.0
235745.0,350480.0,182620.0,284869.0
235778.0,350430.0,182626.0,284869.0
235758.0,350360.0,182592.0,284809.0
235727.0,350303.0,182618.0,284815.0
235663.0,350205.0,182675.0,284831.0
235665.0,350087.0,182656.0,284858.0
235602.0,349977.0,182636.0,284853.0
235578.0,349871.0,182653.0,284849.0
235521.0,349741.0,182706.0,284867.0
235485.0,349624.0,182691.0,284891.0
235391.0,349546.0,182692.0,284890.0
235382.0,349442.0,182655.0,284906.0
235287.0,349370.0,182677.0,284909.0
235249.0,349285.0,182702.0,284902.0
235243.0,349268.0,182706.0,284911.0
235199.0,349198.0,182684.0,284901.0
235181.0,349107.0,182696.0,284878.0
235143.0,349029.0,182691.0,284862.0
235123.0,349021.0,182687.0,284863.0
235097.0,348980.0,182681.0,284890.0
235101.0,348985.0,182669.0,284880.0
235064.0,348963.0,182681.0,284851.0
235059.0,348955.0,182676.0,284854.0
235053.0,348945.0,182688.0,284892.0
235021.0,348965.0,182699.0,284899.0
235011.0,348953.0,182710.0,284911.0
235004.0,348954.0,182694.0,284919.0
235000.0,348986.0,182747.0,284916.0
235005.0,349032.0,182750.0,284936.0
235033.0,349059.0,182776.0,284909.0
235032.0,349036.0,182759.0,284947.0
235011.0,349074.0,182764.0,284982.0
235040.0,349073.0,182787.0,284984.0
235030.0,349089.0,182779.0,284948.0
235022.0,349110.0,182789.0,284994.0
235055.0,349138.0,182839.0,285000.0
235042.0,349188.0,182887.0,285000.0
235064.0,349221.0,182869.0,285022.0
235060.0,349217.0,182893.0,285045.0
235064.0,349269.0,182933.0,285086.0
235055.0,349267.0,182940.0,285082.0
235050.0,349273.0,182964.0,285171.0
235090.0,349326.0,183009.0,285176.0
235062.0,349376.0,183010.0,285161.0
235043.0,349436.0,183044.0,285175.0
235067.0,349412.0,183061.0,285209.0
235098.0,349454.0,183113.0,285207.0
235066.0,349428.0,183078.0,285255.0
235109.0,349465.0,183076.0,285234.0
235068.0,349521.0,183066.0,285253.0
235110.0,349570.0,183082.0,285244.0
235130.0,349584.0,183080.0,285281.0
235120.0,349667.0,183050.0,285267.0
235105.0,349686.0,183081.0,285293.0
235148.0,349745.0,183063.0,285252.0
235146.0,349762.0,183064.0,285266.0
235163.0,349811.0,183084.0,285207.0
235148.0,349808.0,183079.0,285284.0
235205.0,349868.0,183066.0,285306.0
235227.0,349895.0,183085.0,285300.0
235243.0,349948.0,183080.0,285282.0
235227.0,350006.0,183101.0,285301.0
235275.0,350034.0,183143.0,285317.0
235346.0,350110.0,183120.0,285320.0
235340.0,350172.0,183094.0,285304.0
235344.0,350228.0,183144.0,285329.0
235340.0,350276.0,183102.0,285368.0
235344.0,350299.0,183114.0,285359.0
235373.0,350359.0,183160.0,285341.0
235405.0,350417.0,183143.0,285415.0
235422.0,350529.0,183109.0,285355.0
235449.0,350510.0,183146.0,285351.0
235456.0,350538.0,183146.0,285362.0
235494.0,350593.0,183135.0,285397.0
235509.0,350622.0,183138.0,285353.0
235462.0,350647.0,183135.0,285367.0
235520.0,350621.0,183133.0,285360.0
235548.0,350650.0,183143.0,285388.0
235542.0,350650.0,183126.0,285372.0
235518.0,350554.0,183142.0,285411.0
235456.0,350520.0,183163.0,285360.0
235439.0,350433.0,183153.0,285327.0
235423.0,350332.0,183143.0,285368.0
235396.0,350227.0,183176.0,285323.0
235328.0,350153.0,183131.0,285325.0
235287.0,350029.0,183180.0,285351.0
235264.0,349942.0,183149.0,285352.0
235208.0,349819.0,183175.0,285368.0
235159.0,349765.0,183177.0,285324.0
235096.0,349681.0,183162.0,285352.0
235058.0,349590.0,183195.0,285341.0
235043.0,349529.0,183184.0,285371.0
234987.0,349460.0,183182.0,285337.0
234984.0,349465.0,183208.0,285370.0
234962.0,349463.0,183173.0,285358.0
234943.0,349422.0,183192.0,285339.0
234925.0,349395.0,183224.0,285365.0
234882.0,349426.0,183192.0,285401.0
234888.0,349370.0,183148.0,285363.0
234895.0,349383.0,183138.0,285343.0
234877.0,349366.0,183145.0,285304.0
234893.0,349357.0,183126.0,285237.0
234875.0,349387.0,183103.0,285191.0
234885.0,349351.0,183029.0,285086.0
234862.0,349321.0,183021.0,285036.0
234878.0,349354.0,182979.0,284931.0
234874.0,349363.0,182890.0,284817.0
234885.0,349358.0,182880.0,284731.0
234885.0,349326.0,182794.0,284654.0
234870.0,349329.0,182755.0,284585.0
234888.0,349317.0,182766.0,284520.0
234887.0,349242.0,182700.0,284516.0
234888.0,349282.0,182721.0,284469.0
