198351.0,304025.0,172546.0,272737.0
198440.0,304332.0,172607.0,272863.0
198592.0,304689.0,172702.0,272894.0
198730.0,304984.0,172716.0,272987.0
198863.0,305294.0,172782.0,272999.0
199005.0,305612.0,172835.0,273103.0
199155.0,306067.0,172857.0,273186.0
199294.0,306429.0,172898.0,273231.0
199445.0,306664.0,172882.0,273217.0
199520.0,306915.0,172888.0,273200.0
199616.0,307104.0,172892.0,273179.0
199669.0,307280.0,172869.0,273230.0
199777.0,307447.0,172909.0,273219.0
199864.0,307617.0,172916.0,273247.0
199933.0,307789.0,172929.0,273242.0
200055.0,307988.0,172951.0,273276.0
200111.0,308148.0,172976.0,273329.0
200172.0,308284.0,172957.0,273267.0
200239.0,308405.0,172925.0,273188.0
200283.0,308479.0,172889.0,273138.0
200320.0,308591.0,172920.0,273133.0
200379.0,308734.0,172958.0,273195.0
200463.0,308840.0,172948.0,273208.0
200525.0,308984.0,172934.0,273240.0
200570.0,309116.0,172976.0,273233.0
200627.0,309249.0,173005.0,273234.0
200692.0,309354.0,173005.0,273260.0
200723.0,309404.0,172954.0,273233.0
200804.0,309480.0,172976.0,273226.0
200872.0,309557.0,172989.0,273226.0
201004.0,309733.0,172937.0,273168.0
201003.0,309808.0,172955.0,273152.0
201082.0,309897.0,172942.0,273156.0
201143.0,309996.0,172968.0,273183.0
201207.0,310132.0,173028.0,273279.0
201262.0,310323.0,173099.0,273356.0
201368.0,310518.0,173097.0,273373.0
201411.0,310597.0,173079.0,273400.0
201483.0,310725.0,173122.0,273372.0
201500.0,310801.0,173043.0,273280.0
201555.0,310778.0,173023.0,273247.0
201588.0,310836.0,173004.0,273192.0
201621.0,310882.0,173047.0,273235.0
201670.0,310935.0,173069.0,273309.0
201681.0,311017.0,173069.0,273339.0
201730.0,311041.0,173097.0,273339.0
201785.0,311076.0,173129.0,273353.0
201770.0,311131.0,173092.0,273381.0
201837.0,311160.0,173131.0,273340.0
201847.0,311192.0,173113.0,273327.0
201821.0,311185.0,173100.0,273252.0
201817.0,311197.0,173037.0,273222.0
201797.0,311157.0,173030.0,273150.0
201812.0,311125.0,173022.0,273179.0
201793.0,311111.0,173046.0,273145.0
201777.0,311091.0,173003.0,273124.0
201779.0,311034.0,173039.0,273166.0
201754.0,311076.0,173111.0,273181.0
201791.0,311080.0,173127.0,273216.0
201778.0,311109.0,173150.0,273277.0
201772.0,311148.0,173163.0,273348.0
201829.0,311247.0,173205.0,273379.0
201844.0,311320.0,173246.0,273382.0
201863.0,311370.0,173284.0,273480.0
201905.0,311453.0,173310.0,273547.0
201923.0,311565.0,173396.0,273666.0
201977.0,311675.0,173447.0,273692.0
202035.0,311786.0,173466.0,273760.0
202064.0,311866.0,173483.0,273809.0
202131.0,311956.0,173505.0,273783.0
202110.0,312001.0,173524.0,273803.0
202167.0,312052.0,173530.0,273852.0
202187.0,312165.0,173557.0,273893.0
202256.0,312278.0,173622.0,273971.0
202282.0,312382.0,173652.0,274056.0
202293.0,312424.0,173673.0,274096.0
202346.0,312513.0,173660.0,274095.0
202389.0,312550.0,173707.0,274095.0
202432.0,312611.0,173673.0,274088.0
202463.0,312659.0,173689.0,274060.0
202504.0,312668.0,173670.0,274032.0
202552.0,312785.0,173690.0,274052.0
202576.0,312873.0,173708.0,274151.0
202665.0,312987.0,173774.0,274158.0
202710.0,313157.0,173804.0,274241.0
202780.0,313288.0,173850.0,274309.0
202835.0,313440.0,173847.0,274415.0
202889.0,313617.0,173877.0,274384.0
202979.0,313761.0,173884.0,274447.0
203033.0,313871.0,173926.0,274444.0
203082.0,314034.0,173968.0,274537.0
203145.0,314134.0,173965.0,274541.0
203261.0,314274.0,173958.0,274533.0
203295.0,314413.0,173940.0,274511.0
203365.0,314521.0,173952.0,274524.0
203410.0,314613.0,173964.0,274608.0
203471.0,314774.0,173953.0,274541.0
203490.0,314850.0,173948.0,274539.0
203534.0,314952.0,173960.0,274486.0
203579.0,315025.0,173910.0,274459.0
203599.0,315094.0,173963.0,274524.0
203671.0,315196.0,174012.0,274659.0
203711.0,315321.0,174051.0,274642.0
203786.0,315403.0,174040.0,274699.0
203817.0,315539.0,174017.0,274654.0
203870.0,315566.0,173989.0,274618.0
203888.0,315662.0,173983.0,274650.0
203933.0,315721.0,173997.0,274635.0
203965.0,315824.0,174009.0,274632.0
204005.0,315947.0,174076.0,274701.0
204083.0,316064.0,174101.0,274758.0
204157.0,316226.0,174126.0,274837.0
204162.0,316365.0,174118.0,274856.0
204230.0,316384.0,174154.0,274878.0
204241.0,316413.0,174087.0,274835.0
204303.0,316517.0,174086.0,274724.0
204320.0,316502.0,174083.0,274748.0
204339.0,316521.0,174084.0,274757.0
204346.0,316579.0,174131.0,274795.0
204391.0,316674.0,174111.0,274748.0
204389.0,316679.0,174090.0,274804.0
204435.0,316699.0,174150.0,274806.0
204406.0,316647.0,174133.0,274840.0
204443.0,316729.0,174176.0,274844.0
204473.0,316793.0,174161.0,274898.0
204498.0,316856.0,174180.0,274893.0
204525.0,316889.0,174181.0,274866.0
204525.0,316941.0,174199.0,274861.0
204547.0,316937.0,174190.0,274863.0
204542.0,316951.0,174188.0,274871.0
204555.0,316984.0,174216.0,274869.0
204572.0,317033.0,174200.0,274899.0
204621.0,317059.0,174170.0,274883.0
204613.0,317071.0,174189.0,274861.0
204612.0,317093.0,174202.0,274859.0
204623.0,317065.0,174218.0,274874.0
204616.0,317126.0,174186.0,274863.0
204648.0,317129.0,174205.0,274881.0
204650.0,317181.0,174174.0,274887.0
204685.0,317239.0,174195.0,274913.0
204695.0,317322.0,174197.0,274956.0
204740.0,317432.0,174237.0,275028.0
204778.0,317497.0,174268.0,275029.0
204836.0,317586.0,174257.0,275053.0
204858.0,317635.0,174264.0,275014.0
204884.0,317645.0,174218.0,274990.0
204845.0,317643.0,174215.0,274945.0
204864.0,317625.0,174138.0,274863.0
204828.0,317599.0,174135.0,274809.0
204843.0,317503.0,174051.0,274759.0
204840.0,317425.0,174033.0,274728.0
204794.0,317475.0,174020.0,274642.0
204826.0,317375.0,174015.0,274587.0
204796.0,317437.0,174004.0,274620.0
204846.0,317520.0,174078.0,274715.0
204889.0,317612.0,174126.0,274804.0
204943.0,317722.0,174168.0,274877.0
204993.0,317837.0,174179.0,274940.0
205001.0,317906.0,174220.0,274932.0
205017.0,317962.0,174215.0,274944.0
205056.0,317987.0,174177.0,274885.0
205067.0,318019.0,174169.0,274863.0
205085.0,318041.0,174170.0,274890.0
205128.0,318113.0,174184.0,274911.0
205169.0,318159.0,174203.0,274948.0
205179.0,318283.0,174268.0,275010.0
205240.0,318387.0,174313.0,275058.0
205296.0,318518.0,174297.0,275107.0
205351.0,318609.0,174321.0,275141.0
205388.0,318739.0,174333.0,275135.0
205435.0,318812.0,174291.0,275138.0
205447.0,318902.0,174275.0,275068.0
205446.0,318925.0,174271.0,275054.0
205500.0,318982.0,174233.0,275001.0
205507.0,319040.0,174243.0,275014.0
205521.0,319041.0,174237.0,275052.0
205539.0,319104.0,174276.0,275025.0
205600.0,319183.0,174288.0,275097.0
205622.0,319222.0,174301.0,275179.0
205661.0,319320.0,174291.0,275146.0
205702.0,319377.0,174314.0,275137.0
205730.0,319454.0,174372.0,275202.0
205801.0,319597.0,174413.0,275297.0
205877.0,319724.0,174404.0,275322.0
205913.0,319838.0,174413.0,275386.0
205960.0,319944.0,174442.0,275402.0
206016.0,320078.0,174460.0,275388.0
206042.0,320161.0,174460.0,275371.0
206087.0,320210.0,174397.0,275386.0
206100.0,320263.0,174411.0,275329.0
206124.0,320267.0,174382.0,275281.0
206113.0,320277.0,174375.0,275266.0
206141.0,320263.0,174360.0,275254.0
206160.0,320274.0,174420.0,275263.0
206176.0,320266.0,174386.0,275294.0
206187.0,320317.0,174374.0,275260.0
206198.0,320241.0,174370.0,275213.0
206199.0,320255.0,174351.0,275219.0
206158.0,320196.0,174343.0,275181.0
206185.0,320173.0,174326.0,275120.0
206106.0,320080.0,174260.0,275034.0
206097.0,320009.0,174266.0,274979.0
206070.0,319916.0,174227.0,274965.0
206083.0,319863.0,174262.0,275000.0
206053.0,319870.0,174313.0,275104.0
206058.0,319985.0,174407.0,275221.0
206103.0,320081.0,174499.0,275365.0
206162.0,320205.0,174540.0,275497.0
206187.0,320320.0,174589.0,275539.0
206206.0,320418.0,174566.0,275559.0
206278.0,320473.0,174606.0,275536.0
206281.0,320546.0,174584.0,275561.0
206276.0,320581.0,174551.0,275512.0
206309.0,320577.0,174577.0,275612.0
206342.0,320709.0,174663.0,275676.0
206391.0,320770.0,174657.0,275722.0
206410.0,320915.0,174677.0,275737.0
206468.0,320907.0,174700.0,275728.0
206482.0,321016.0,174690.0,275756.0
206507.0,321121.0,174667.0,275753.0
206516.0,321152.0,174628.0,275651.0
206546.0,321187.0,174617.0,275653.0
206543.0,321140.0,174612.0,275603.0
206570.0,321229.0,174642.0,275703.0
206611.0,321274.0,174639.0,275691.0
206613.0,321327.0,174653.0,275700.0
206620.0,321305.0,174650.0,275693.0
206662.0,321321.0,174649.0,275718.0
206655.0,321400.0,174692.0,275741.0
206705.0,321414.0,174665.0,275771.0
206695.0,321481.0,174692.0,275806.0
206733.0,321555.0,174685.0,275832.0
206768.0,321604.0,174734.0,275814.0
206777.0,321604.0,174727.0,275823.0
206791.0,321704.0,174729.0,275819.0
206831.0,321777.0,174740.0,275880.0
206869.0,321851.0,174773.0,275942.0
206891.0,321952.0,174793.0,275959.0
206949.0,321993.0,174798.0,275925.0
206973.0,322099.0,174796.0,275936.0
206996.0,322129.0,174755.0,275905.0
207031.0,322137.0,174744.0,275872.0
207044.0,322214.0,174718.0,275843.0
207064.0,322221.0,174710.0,275803.0
207136.0,322323.0,174743.0,275844.0
207145.0,322422.0,174819.0,275978.0
207158.0,322516.0,174815.0,276033.0
207250.0,322641.0,174869.0,276042.0
207269.0,322703.0,174843.0,276036.0
207292.0,322769.0,174850.0,276038.0
207311.0,322814.0,174821.0,275977.0
207336.0,322852.0,174787.0,275974.0
207359.0,322895.0,174778.0,275979.0
207365.0,322974.0,174823.0,275941.0
207422.0,323016.0,174806.0,275975.0
207416.0,323083.0,174767.0,275971.0
207474.0,323070.0,174819.0,275970.0
207496.0,323137.0,174849.0,276060.0
207520.0,323252.0,174861.0,276057.0
207581.0,323346.0,174851.0,276072.0
207575.0,323429.0,174866.0,276106.0
207625.0,323504.0,174841.0,276103.0
207683.0,323577.0,174837.0,276078.0
207694.0,323642.0,174861.0,276087.0
207720.0,323672.0,174839.0,276093.0
207740.0,323707.0,174803.0,276039.0
207761.0,323747.0,174799.0,276000.0
207758.0,323737.0,174831.0,275968.0
207700.0,323686.0,174785.0,275918.0
207746.0,323615.0,174734.0,275850.0
207698.0,323489.0,174695.0,275818.0
207646.0,323319.0,174663.0,275736.0
207567.0,323203.0,174604.0,275581.0
207569.0,322964.0,174557.0,275507.0
207513.0,322799.0,174507.0,275386.0
207458.0,322637.0,174473.0,275393.0
207406.0,322604.0,174516.0,275441.0
207355.0,322498.0,174568.0,275493.0
207378.0,322461.0,174583.0,275499.0
207344.0,322440.0,174595.0,275503.0
207313.0,322348.0,174600.0,275534.0
207279.0,322319.0,174581.0,275487.0
207294.0,322241.0,174596.0,275523.0
207272.0,322261.0,174632.0,275567.0
207259.0,322261.0,174623.0,275532.0
207271.0,322276.0,174587.0,275539.0
207265.0,322215.0,174583.0,275543.0
207243.0,322206.0,174573.0,275527.0
207244.0,322083.0,174529.0,275388.0
207244.0,322044.0,174484.0,275306.0
207178.0,321993.0,174432.0,275281.0
207162.0,321943.0,174424.0,275222.0
207168.0,321905.0,174417.0,275187.0
207149.0,321828.0,174436.0,275203.0
207126.0,321816.0,174404.0,275167.0
207093.0,321777.0,174390.0,275147.0
207124.0,321744.0,174410.0,275165.0
207121.0,321740.0,174410.0,275164.0
207114.0,321749.0,174425.0,275170.0
207137.0,321724.0,174473.0,275185.0
207151.0,321751.0,174512.0,275250.0
207157.0,321818.0,174547.0,275327.0
207183.0,321811.0,174566.0,275378.0
207214.0,321869.0,174589.0,275411.0
207199.0,321848.0,174587.0,275398.0
207212.0,321870.0,174565.0,275340.0
207223.0,321885.0,174559.0,275376.0
207212.0,321874.0,174579.0,275339.0
207238.0,321858.0,174568.0,275352.0
207243.0,321897.0,174633.0,275470.0
207275.0,321963.0,174691.0,275581.0
207327.0,322126.0,174735.0,275632.0
207365.0,322187.0,174760.0,275684.0
207398.0,322252.0,174769.0,275703.0
207393.0,322272.0,174764.0,275682.0
207373.0,322322.0,174779.0,275608.0
207412.0,322296.0,174709.0,275580.0
207417.0,322269.0,174684.0,275503.0
207403.0,322278.0,174614.0,275432.0
207383.0,322196.0,174584.0,275346.0
207374.0,322171.0,174587.0,275314.0
207377.0,322132.0,174603.0,275343.0
207356.0,322178.0,174623.0,275343.0
207370.0,322155.0,174583.0,275351.0
207394.0,322191.0,174624.0,275346.0
207386.0,322243.0,174625.0,275375.0
207410.0,322238.0,174640.0,275378.0
207403.0,322230.0,174609.0,275369.0
207461.0,322277.0,174648.0,275398.0
207450.0,322322.0,174674.0,275412.0
207492.0,322392.0,174726.0,275476.0
207541.0,322541.0,174754.0,275570.0
207560.0,322592.0,174765.0,275583.0
207577.0,322598.0,174757.0,275563.0
207616.0,322663.0,174761.0,275569.0
207651.0,322637.0,174716.0,275520.0
207622.0,322681.0,174737.0,275533.0
207614.0,322664.0,174714.0,275487.0
207616.0,322647.0,174678.0,275470.0
207636.0,322656.0,174684.0,275480.0
207649.0,322615.0,174680.0,275445.0
207657.0,322654.0,174764.0,275523.0
207648.0,322718.0,174859.0,275718.0
207740.0,322777.0,174969.0,275848.0
207760.0,322854.0,175006.0,275913.0
207811.0,322928.0,175036.0,275966.0
207784.0,322862.0,175021.0,275988.0
207771.0,322831.0,175042.0,275910.0
207758.0,322784.0,175041.0,275966.0
207747.0,322707.0,175036.0,275928.0
207701.0,322602.0,175031.0,275924.0
207668.0,322515.0,174985.0,275885.0
207694.0,322427.0,175002.0,275774.0
207635.0,322302.0,174941.0,275773.0
207603.0,322232.0,174886.0,275671.0
207522.0,322126.0,174840.0,275612.0
207499.0,322056.0,174819.0,275534.0
207464.0,321915.0,174788.0,275486.0
207449.0,321855.0,174759.0,275455.0
207436.0,321774.0,174725.0,275403.0
207378.0,321690.0,174706.0,275341.0
207393.0,321655.0,174739.0,275427.0
207368.0,321743.0,174832.0,275567.0
207430.0,321792.0,174872.0,275628.0
207416.0,321883.0,174924.0,275710.0
207455.0,321957.0,174976.0,275810.0
207526.0,322042.0,175025.0,275844.0
207526.0,322088.0,175049.0,275896.0
207549.0,322160.0,175052.0,275926.0
207605.0,322196.0,175091.0,275952.0
207595.0,322334.0,175134.0,276031.0
207619.0,322408.0,175146.0,276118.0
207683.0,322483.0,175207.0,276179.0
207699.0,322581.0,175229.0,276250.0
207728.0,322679.0,175283.0,276270.0
207767.0,322757.0,175309.0,276307.0
207806.0,322830.0,175248.0,276248.0
207792.0,322741.0,175243.0,276245.0
207759.0,322697.0,175191.0,276146.0
207763.0,322621.0,175147.0,276046.0
207751.0,322634.0,175156.0,276088.0
207748.0,322629.0,175184.0,276135.0
207773.0,322709.0,175228.0,276165.0
207826.0,322749.0,175244.0,276195.0
207826.0,322774.0,175240.0,276184.0
207822.0,322813.0,175211.0,276150.0
207871.0,322844.0,175182.0,276188.0
207819.0,322785.0,175189.0,276116.0
207816.0,322759.0,175159.0,276100.0
207828.0,322746.0,175163.0,276075.0
207812.0,322760.0,175170.0,276085.0
207813.0,322776.0,175164.0,276141.0
207834.0,322840.0,175219.0,276165.0
207873.0,322869.0,175228.0,276178.0
207882.0,322886.0,175254.0,276184.0
207882.0,322927.0,175202.0,276158.0
207899.0,322943.0,175186.0,276147.0
207905.0,322941.0,175190.0,276105.0
207896.0,322875.0,175154.0,276065.0
207893.0,322830.0,175110.0,275984.0
207892.0,322850.0,175119.0,275991.0
207906.0,322891.0,175127.0,276087.0
207930.0,322980.0,175205.0,276116.0
207976.0,323069.0,175213.0,276174.0
207984.0,323112.0,175229.0,276220.0
208024.0,323173.0,175227.0,276189.0
208062.0,323179.0,175221.0,276182.0
208053.0,323236.0,175215.0,276129.0
208078.0,323196.0,175198.0,276131.0
208085.0,323301.0,175252.0,276219.0
208177.0,323434.0,175329.0,276353.0
208200.0,323555.0,175410.0,276488.0
208254.0,323697.0,175433.0,276555.0
208312.0,323823.0,175455.0,276596.0
208334.0,323913.0,175451.0,276626.0
208399.0,323972.0,175471.0,276612.0
208448.0,323996.0,175521.0,276677.0
208443.0,324038.0,175525.0,276683.0
208476.0,324067.0,175530.0,276707.0
208457.0,324076.0,175567.0,276711.0
208499.0,324071.0,175526.0,276741.0
208514.0,324052.0,175563.0,276752.0
208469.0,324032.0,175565.0,276744.0
208512.0,324042.0,175612.0,276828.0
208527.0,324061.0,175681.0,276866.0
208541.0,324115.0,175707.0,276989.0
208559.0,324163.0,175773.0,277067.0
208587.0,324230.0,175815.0,277152.0
208602.0,324269.0,175823.0,277164.0
208589.0,324284.0,175825.0,277169.0
208581.0,324354.0,175831.0,277185.0
208611.0,324365.0,175827.0,277152.0
208596.0,324309.0,175791.0,277083.0
208586.0,324270.0,175752.0,277067.0
208584.0,324297.0,175718.0,276994.0
208552.0,324215.0,175718.0,276943.0
208557.0,324238.0,175712.0,276950.0
208559.0,324206.0,175713.0,276955.0
208558.0,324254.0,175746.0,276996.0
208582.0,324284.0,175755.0,277019.0
208609.0,324378.0,175765.0,277028.0
208610.0,324388.0,175788.0,277051.0
208633.0,324418.0,175793.0,277065.0
208616.0,324471.0,175763.0,277011.0
208651.0,324424.0,175790.0,277070.0
208632.0,324458.0,175768.0,277069.0
208608.0,324406.0,175777.0,277039.0
208611.0,324357.0,175724.0,277014.0
208573.0,324269.0,175696.0,276966.0
208564.0,324231.0,175675.0,276875.0
208548.0,324200.0,175671.0,276859.0
208530.0,324164.0,175686.0,276888.0
208541.0,324117.0,175626.0,276859.0
208520.0,324072.0,175651.0,276828.0
208503.0,324073.0,175686.0,276885.0
208489.0,324008.0,175648.0,276886.0
208513.0,324013.0,175698.0,276897.0
208485.0,324050.0,175711.0,276916.0
208490.0,324034.0,175702.0,276946.0
208485.0,324106.0,175766.0,276942.0
208531.0,324165.0,175768.0,276952.0
208540.0,324169.0,175786.0,277010.0
208576.0,324213.0,175810.0,277052.0
208524.0,324278.0,175807.0,277067.0
208571.0,324312.0,175757.0,277074.0
208567.0,324291.0,175765.0,277032.0
208576.0,324237.0,175737.0,276999.0
208572.0,324255.0,175736.0,276989.0
208632.0,324290.0,175712.0,276963.0
208622.0,324280.0,175719.0,276954.0
208602.0,324301.0,175734.0,277005.0
208640.0,324350.0,175776.0,276973.0
208654.0,324417.0,175748.0,276986.0
208674.0,324454.0,175736.0,276970.0
208681.0,324431.0,175750.0,276963.0
208670.0,324439.0,175718.0,276957.0
208683.0,324375.0,175676.0,276862.0
208651.0,324389.0,175662.0,276840.0
208669.0,324342.0,175652.0,276837.0
208665.0,324339.0,175639.0,276819.0
208678.0,324422.0,175650.0,276856.0
208692.0,324456.0,175676.0,276876.0
208714.0,324463.0,175680.0,276904.0
208722.0,324524.0,175669.0,276914.0
208734.0,324518.0,175680.0,276890.0
208737.0,324546.0,175675.0,276872.0
208750.0,324595.0,175693.0,276858.0
208775.0,324676.0,175716.0,276924.0
208840.0,324688.0,175654.0,276880.0
208870.0,324730.0,175670.0,276885.0
208881.0,324760.0,175668.0,276870.0
208921.0,324786.0,175633.0,276815.0
208922.0,324740.0,175581.0,276779.0
208877.0,324718.0,175616.0,276764.0
208880.0,324657.0,175602.0,276761.0
208856.0,324531.0,175601.0,276743.0
208865.0,324445.0,175630.0,276751.0
208801.0,324301.0,175622.0,276788.0
208760.0,324209.0,175626.0,276757.0
208695.0,324067.0,175634.0,276763.0
208673.0,323947.0,175627.0,276730.0
208609.0,323802.0,175583.0,276653.0
208584.0,323600.0,175572.0,276576.0
208535.0,323541.0,175586.0,276640.0
