59801.0,144938.0,96719.0,249914.0
59780.0,144911.0,96703.0,249920.0
59767.0,144897.0,96719.0,249879.0
59769.0,144887.0,96715.0,249919.0
59759.0,144847.0,96707.0,249875.0
59744.0,144846.0,96703.0,249862.0
59751.0,144803.0,96720.0,249880.0
59744.0,144788.0,96713.0,249864.0
59727.0,144765.0,96718.0,249865.0
59714.0,144755.0,96689.0,249831.0
59724.0,144710.0,96713.0,249815.0
59717.0,144722.0,96698.0,249777.0
59709.0,144706.0,96694.0,249740.0
59715.0,144683.0,96668.0,249714.0
59706.0,144675.0,96670.0,249714.0
59707.0,144664.0,96689.0,249677.0
59706.0,144654.0,96650.0,249664.0
59697.0,144658.0,96652.0,249647.0
59701.0,144651.0,96625.0,249628.0
59703.0,144634.0,96649.0,249624.0
59690.0,144658.0,96638.0,249624.0
59695.0,144656.0,96656.0,249627.0
59684.0,144651.0,96646.0,249638.0
59703.0,144687.0,96671.0,249661.0
59694.0,144657.0,96676.0,249732.0
59708.0,144648.0,96682.0,249761.0
59695.0,144663.0,96665.0,249726.0
59693.0,144681.0,96674.0,249725.0
59701.0,144683.0,96672.0,249715.0
59716.0,144667.0,96732.0,249840.0
59714.0,144709.0,96913.0,250273.0
59713.0,144760.0,97172.0,250876.0
59739.0,144787.0,97375.0,251376.0
59716.0,144765.0,97321.0,251084.0
59727.0,144746.0,97610.0,251509.0
59730.0,144771.0,98005.0,252227.0
59740.0,144854.0,98340.0,252846.0
59787.0,144931.0,98488.0,253148.0
59825.0,145023.0,98401.0,253041.0
59850.0,145118.0,98238.0,252732.0
59868.0,145164.0,98096.0,252507.0
59894.0,145227.0,98071.0,252434.0
59951.0,145327.0,97881.0,251997.0
59920.0,145386.0,97772.0,251753.0
59928.0,145434.0,97649.0,251559.0
59967.0,145491.0,97498.0,251313.0
59985.0,145581.0,97267.0,250921.0
59995.0,145632.0,96987.0,250444.0
60012.0,145698.0,96752.0,250057.0
60017.0,145700.0,96573.0,249753.0
60021.0,145724.0,96481.0,249533.0
60037.0,145738.0,96401.0,249430.0
60036.0,145745.0,96304.0,249285.0
60042.0,145745.0,96213.0,249128.0
60031.0,145725.0,96158.0,249016.0
60040.0,145750.0,96102.0,248963.0
60036.0,145777.0,96090.0,249027.0
60037.0,145708.0,96130.0,249068.0
60032.0,145712.0,96159.0,249125.0
60044.0,145664.0,96165.0,249139.0
59983.0,145632.0,96217.0,249210.0
59984.0,145556.0,96275.0,249334.0
59990.0,145495.0,96386.0,249537.0
59951.0,145463.0,96540.0,249798.0
59943.0,145462.0,96714.0,250107.0
59958.0,145462.0,96856.0,250387.0
59951.0,145463.0,96993.0,250584.0
59952.0,145512.0,97102.0,250760.0
59980.0,145526.0,97214.0,250955.0
60000.0,145585.0,97268.0,251090.0
60033.0,145635.0,97301.0,251163.0
60026.0,145741.0,97304.0,251133.0
60048.0,145786.0,97298.0,251133.0
60075.0,145863.0,97307.0,251102.0
60096.0,145922.0,97304.0,251122.0
60104.0,145958.0,97291.0,251059.0
60124.0,146039.0,97280.0,251009.0
60130.0,146066.0,97243.0,250970.0
60140.0,146065.0,97254.0,251039.0
60150.0,146100.0,97304.0,251033.0
60143.0,146115.0,97366.0,251137.0
60165.0,146145.0,97426.0,251271.0
60170.0,146150.0,97474.0,251303.0
60172.0,146191.0,97535.0,251435.0
60173.0,146224.0,97600.0,251508.0
60195.0,146273.0,97625.0,251568.0
60200.0,146323.0,97679.0,251639.0
60223.0,146395.0,97676.0,251690.0
60237.0,146427.0,97705.0,251681.0
60267.0,146491.0,97715.0,251707.0
60287.0,146571.0,97722.0,251717.0
60310.0,146624.0,97753.0,251746.0
60323.0,146694.0,97744.0,251714.0
60357.0,146783.0,97730.0,251708.0
60376.0,146825.0,97754.0,251734.0
60402.0,146900.0,97779.0,251733.0
60398.0,146949.0,97789.0,251763.0
60433.0,146995.0,97793.0,251744.0
60450.0,147083.0,97788.0,251768.0
60474.0,147145.0,97788.0,251733.0
60490.0,147200.0,97760.0,251656.0
60504.0,147282.0,97760.0,251651.0
60532.0,147322.0,97734.0,251599.0
60551.0,147363.0,97713.0,251585.0
60558.0,147407.0,97708.0,251518.0
60578.0,147493.0,97683.0,251506.0
60583.0,147500.0,97668.0,251490.0
60608.0,147552.0,97665.0,251438.0
60615.0,147587.0,97638.0,251420.0
60616.0,147636.0,97625.0,251409.0
60635.0,147668.0,97595.0,251362.0
60643.0,147725.0,97591.0,251317.0
60661.0,147714.0,97562.0,251240.0
60666.0,147758.0,97507.0,251197.0
60681.0,147801.0,97461.0,251113.0
60692.0,147815.0,97437.0,251050.0
60712.0,147832.0,97400.0,250955.0
60681.0,147866.0,97377.0,250929.0
60697.0,147875.0,97357.0,250854.0
60714.0,147896.0,97327.0,250817.0
60725.0,147906.0,97300.0,250753.0
60716.0,147938.0,97267.0,250705.0
60733.0,147960.0,97216.0,250636.0
60737.0,147996.0,97206.0,250564.0
60757.0,148015.0,97170.0,250521.0
60757.0,148026.0,97129.0,250454.0
60761.0,148053.0,97140.0,250444.0
60771.0,148070.0,97132.0,250421.0
60768.0,148079.0,97107.0,250441.0
60777.0,148126.0,97088.0,250425.0
60792.0,148111.0,97091.0,250369.0
60788.0,148149.0,97074.0,250323.0
60797.0,148139.0,97066.0,250310.0
60804.0,148160.0,97030.0,250280.0
60797.0,148170.0,97017.0,250223.0
60804.0,148178.0,96981.0,250181.0
60802.0,148174.0,96969.0,250182.0
60830.0,148193.0,96971.0,250150.0
60817.0,148196.0,96946.0,250171.0
60823.0,148206.0,96960.0,250160.0
60819.0,148204.0,96963.0,250125.0
60813.0,148220.0,96966.0,250129.0
60816.0,148213.0,96974.0,250094.0
60831.0,148202.0,96979.0,250171.0
60838.0,148189.0,96963.0,250192.0
60834.0,148200.0,96991.0,250195.0
60807.0,148215.0,96984.0,250201.0
60830.0,148242.0,96978.0,250193.0
60831.0,148230.0,96957.0,250177.0
60827.0,148231.0,96975.0,250145.0
60834.0,148215.0,96953.0,250142.0
60833.0,148223.0,96960.0,250129.0
60828.0,148238.0,96960.0,250126.0
60819.0,148231.0,96952.0,250116.0
60815.0,148234.0,96937.0,250156.0
60829.0,148242.0,96933.0,250112.0
60826.0,148222.0,96944.0,250072.0
60838.0,148229.0,96923.0,250125.0
60832.0,148240.0,96912.0,250084.0
60824.0,148190.0,96932.0,250052.0
60833.0,148186.0,96939.0,250040.0
60799.0,148146.0,96899.0,250026.0
60808.0,148129.0,96906.0,250010.0
60784.0,148069.0,96886.0,249968.0
60770.0,148032.0,96866.0,249957.0
60765.0,147994.0,96858.0,249927.0
60755.0,147977.0,96866.0,249922.0
60743.0,147943.0,96842.0,249910.0
60732.0,147897.0,96843.0,249861.0
60718.0,147874.0,96832.0,249850.0
60708.0,147826.0,96821.0,249879.0
60699.0,147801.0,96812.0,249864.0
60689.0,147773.0,96806.0,249805.0
60685.0,147749.0,96803.0,249760.0
60680.0,147720.0,96791.0,249788.0
60672.0,147709.0,96807.0,249813.0
60658.0,147675.0,96809.0,249831.0
60652.0,147662.0,96824.0,249844.0
60645.0,147636.0,96802.0,249800.0
60644.0,147614.0,96826.0,249849.0
60635.0,147596.0,96839.0,249895.0
60640.0,147584.0,96819.0,249872.0
60643.0,147578.0,96830.0,249863.0
60615.0,147578.0,96839.0,249910.0
60636.0,147558.0,96832.0,249924.0
60613.0,147535.0,96867.0,249977.0
60603.0,147522.0,96890.0,249978.0
60607.0,147525.0,96899.0,250001.0
60615.0,147519.0,96871.0,250007.0
60612.0,147506.0,96893.0,250060.0
60600.0,147497.0,96911.0,250053.0
60608.0,147488.0,96934.0,250048.0
60603.0,147501.0,96974.0,250094.0
60604.0,147513.0,96971.0,250112.0
60599.0,147478.0,96995.0,250128.0
60621.0,147504.0,97012.0,250169.0
60594.0,147472.0,96994.0,250168.0
60598.0,147474.0,97002.0,250154.0
60602.0,147471.0,96999.0,250174.0
60599.0,147481.0,97014.0,250152.0
60587.0,147493.0,96999.0,250147.0
60611.0,147502.0,96993.0,250145.0
60591.0,147500.0,97005.0,250173.0
60591.0,147502.0,97004.0,250143.0
60612.0,147502.0,96997.0,250140.0
60601.0,147544.0,97005.0,250128.0
60624.0,147540.0,97009.0,250189.0
60614.0,147538.0,97032.0,250180.0
60623.0,147555.0,97021.0,250166.0
60624.0,147566.0,97015.0,250130.0
60622.0,147594.0,97024.0,250145.0
60626.0,147612.0,97018.0,250125.0
60642.0,147596.0,97033.0,250145.0
60643.0,147629.0,97023.0,250101.0
60653.0,147622.0,97018.0,250067.0
60644.0,147645.0,97034.0,250070.0
60653.0,147652.0,97004.0,250056.0
60651.0,147646.0,96987.0,250012.0
60655.0,147657.0,96978.0,249968.0
60668.0,147688.0,96938.0,249915.0
60660.0,147674.0,96954.0,249902.0
60660.0,147682.0,96937.0,249892.0
60646.0,147663.0,96932.0,249845.0
60659.0,147669.0,96919.0,249919.0
60662.0,147682.0,96925.0,249868.0
60650.0,147708.0,96911.0,249877.0
60666.0,147693.0,96918.0,249865.0
60677.0,147721.0,96940.0,249926.0
60678.0,147721.0,96935.0,249875.0
60693.0,147708.0,96918.0,249883.0
60679.0,147711.0,96931.0,249911.0
60681.0,147707.0,96933.0,249943.0
60673.0,147716.0,96923.0,249949.0
60669.0,147723.0,96940.0,249953.0
60679.0,147723.0,96980.0,249981.0
60685.0,147732.0,96979.0,249967.0
60680.0,147715.0,96979.0,249964.0
60662.0,147723.0,96991.0,250006.0
60671.0,147715.0,96988.0,250017.0
60681.0,147697.0,96993.0,250007.0
60675.0,147681.0,97009.0,249978.0
60666.0,147678.0,96991.0,249988.0
60672.0,147659.0,96997.0,249917.0
60661.0,147663.0,96980.0,249906.0
60659.0,147659.0,96980.0,249871.0
60667.0,147623.0,96964.0,249884.0
60650.0,147631.0,96933.0,249813.0
60644.0,147629.0,96939.0,249808.0
60657.0,147607.0,96915.0,249767.0
60662.0,147601.0,96926.0,249731.0
60632.0,147602.0,96905.0,249765.0
60664.0,147613.0,96913.0,249809.0
60649.0,147615.0,96937.0,249811.0
60643.0,147609.0,96949.0,249806.0
60653.0,147607.0,96938.0,249871.0
60647.0,147612.0,96942.0,249845.0
60647.0,147605.0,96958.0,249864.0
60661.0,147615.0,96982.0,249895.0
60654.0,147639.0,96973.0,249915.0
60677.0,147620.0,96984.0,249981.0
60660.0,147650.0,96989.0,249976.0
60672.0,147644.0,96991.0,249971.0
60673.0,147648.0,96985.0,249955.0
60700.0,147671.0,96977.0,249931.0
60677.0,147682.0,96949.0,249895.0
60675.0,147678.0,96963.0,249891.0
60671.0,147682.0,96937.0,249840.0
60665.0,147684.0,96926.0,249802.0
60694.0,147686.0,96918.0,249823.0
60694.0,147684.0,96914.0,249792.0
60676.0,147691.0,96908.0,249778.0
60680.0,147698.0,96892.0,249799.0
60672.0,147693.0,96891.0,249808.0
60679.0,147690.0,96921.0,249785.0
60680.0,147688.0,96913.0,249782.0
60678.0,147676.0,96908.0,249802.0
60674.0,147678.0,96915.0,249817.0
60674.0,147660.0,96918.0,249794.0
60668.0,147666.0,96923.0,249788.0
60674.0,147628.0,96923.0,249777.0
60639.0,147659.0,96905.0,249821.0
60660.0,147643.0,96922.0,249780.0
60667.0,147661.0,96893.0,249752.0
60674.0,147638.0,96856.0,249731.0
60649.0,147626.0,96836.0,249700.0
60663.0,147612.0,96838.0,249621.0
60655.0,147598.0,96806.0,249643.0
60662.0,147588.0,96773.0,249550.0
60653.0,147590.0,96771.0,249539.0
60647.0,147568.0,96788.0,249527.0
60658.0,147595.0,96767.0,249551.0
60671.0,147626.0,96784.0,249607.0
60659.0,147636.0,96794.0,249609.0
60678.0,147623.0,96822.0,249687.0
60684.0,147639.0,96798.0,249731.0
60664.0,147675.0,96846.0,249709.0
60679.0,147666.0,96861.0,249791.0
60688.0,147698.0,96881.0,249832.0
60674.0,147713.0,96878.0,249857.0
60705.0,147735.0,96886.0,249848.0
60723.0,147758.0,96897.0,249827.0
60714.0,147774.0,96878.0,249833.0
60714.0,147781.0,96888.0,249853.0
60722.0,147809.0,96899.0,249839.0
60738.0,147822.0,96906.0,249832.0
60750.0,147852.0,96893.0,249878.0
60743.0,147871.0,96870.0,249859.0
60750.0,147875.0,96881.0,249836.0
60750.0,147895.0,96895.0,249845.0
60752.0,147930.0,96879.0,249838.0
60768.0,147930.0,96866.0,249809.0
60771.0,147923.0,96859.0,249825.0
60763.0,147971.0,96877.0,249834.0
60785.0,147970.0,96880.0,249860.0
60776.0,147992.0,96900.0,249880.0
60795.0,148010.0,96878.0,249883.0
60810.0,148014.0,96891.0,249858.0
60793.0,148002.0,96890.0,249862.0
60784.0,148008.0,96909.0,249885.0
60811.0,148013.0,96888.0,249871.0
60792.0,148000.0,96886.0,249857.0
60794.0,147983.0,96893.0,249888.0
60785.0,147956.0,96891.0,249817.0
60775.0,147925.0,96883.0,249804.0
60772.0,147928.0,96872.0,249802.0
60775.0,147881.0,96870.0,249790.0
60755.0,147915.0,96827.0,249764.0
60757.0,147868.0,96831.0,249706.0
60756.0,147833.0,96828.0,249721.0
60737.0,147813.0,96836.0,249678.0
60741.0,147806.0,96810.0,249668.0
60729.0,147780.0,96822.0,249667.0
60738.0,147782.0,96804.0,249681.0
60732.0,147756.0,96805.0,249678.0
60726.0,147734.0,96805.0,249719.0
60714.0,147738.0,96785.0,249710.0
60705.0,147720.0,96800.0,249695.0
60708.0,147717.0,96769.0,249699.0
60694.0,147721.0,96781.0,249661.0
60703.0,147709.0,96757.0,249722.0
60702.0,147710.0,96762.0,249692.0
60700.0,147688.0,96744.0,249662.0
60700.0,147698.0,96712.0,249654.0
60709.0,147704.0,96745.0,249664.0
60688.0,147711.0,96710.0,249647.0
60704.0,147687.0,96707.0,249606.0
60711.0,147666.0,96680.0,249576.0
60700.0,147686.0,96687.0,249595.0
60684.0,147668.0,96658.0,249577.0
60686.0,147668.0,96645.0,249559.0
60693.0,147643.0,96655.0,249579.0
60686.0,147637.0,96653.0,249553.0
60703.0,147623.0,96640.0,249565.0
60684.0,147637.0,96633.0,249594.0
60661.0,147625.0,96655.0,249577.0
60675.0,147606.0,96658.0,249571.0
60676.0,147611.0,96656.0,249596.0
60680.0,147595.0,96662.0,249610.0
60669.0,147590.0,96657.0,249600.0
60681.0,147596.0,96653.0,249559.0
60670.0,147567.0,96651.0,249544.0
60664.0,147580.0,96671.0,249594.0
60665.0,147577.0,96672.0,249562.0
60661.0,147573.0,96670.0,249533.0
60673.0,147576.0,96636.0,249514.0
60659.0,147580.0,96655.0,249566.0
60661.0,147579.0,96673.0,249534.0
60660.0,147572.0,96650.0,249517.0
60680.0,147555.0,96641.0,249542.0
60661.0,147583.0,96658.0,249505.0
60654.0,147567.0,96652.0,249527.0
60672.0,147580.0,96632.0,249503.0
60673.0,147564.0,96636.0,249497.0
60662.0,147568.0,96627.0,249491.0
60669.0,147586.0,96649.0,249493.0
60663.0,147582.0,96625.0,249456.0
60664.0,147572.0,96607.0,249504.0
60668.0,147578.0,96608.0,249494.0
60669.0,147580.0,96602.0,249474.0
60671.0,147568.0,96594.0,249463.0
60662.0,147582.0,96606.0,249473.0
60661.0,147586.0,96587.0,249454.0
60674.0,147590.0,96588.0,249446.0
60676.0,147591.0,96567.0,249444.0
60688.0,147586.0,96577.0,249422.0
60678.0,147619.0,96557.0,249436.0
60685.0,147625.0,96588.0,249440.0
60686.0,147597.0,96579.0,249437.0
60686.0,147622.0,96582.0,249477.0
60689.0,147611.0,96582.0,249446.0
60680.0,147618.0,96582.0,249441.0
60694.0,147618.0,96584.0,249439.0
60692.0,147633.0,96552.0,249459.0
60696.0,147644.0,96583.0,249467.0
60690.0,147639.0,96582.0,249484.0
60703.0,147647.0,96583.0,249466.0
60703.0,147650.0,96562.0,249448.0
60695.0,147629.0,96576.0,249456.0
60700.0,147622.0,96582.0,249421.0
60692.0,147615.0,96564.0,249453.0
60673.0,147595.0,96557.0,249423.0
60675.0,147556.0,96552.0,249403.0
60673.0,147541.0,96551.0,249367.0
60652.0,147488.0,96524.0,249340.0
60643.0,147472.0,96526.0,249350.0
60640.0,147435.0,96526.0,249355.0
60635.0,147404.0,96513.0,249333.0
60613.0,147386.0,96525.0,249362.0
60592.0,147331.0,96535.0,249331.0
60596.0,147337.0,96529.0,249325.0
60593.0,147324.0,96539.0,249339.0
60590.0,147287.0,96548.0,249346.0
60589.0,147286.0,96548.0,249362.0
60578.0,147269.0,96552.0,249377.0
60568.0,147263.0,96540.0,249380.0
60568.0,147224.0,96542.0,249376.0
60572.0,147255.0,96556.0,249382.0
60576.0,147238.0,96582.0,249367.0
60571.0,147230.0,96568.0,249383.0
60565.0,147213.0,96573.0,249417.0
60555.0,147233.0,96560.0,249402.0
60566.0,147232.0,96558.0,249379.0
60557.0,147215.0,96575.0,249383.0
60555.0,147216.0,96603.0,249400.0
60567.0,147226.0,96581.0,249411.0
60564.0,147230.0,96591.0,249418.0
60562.0,147212.0,96592.0,249408.0
60561.0,147216.0,96598.0,249430.0
60565.0,147215.0,96605.0,249427.0
60556.0,147205.0,96591.0,249366.0
60564.0,147207.0,96609.0,249374.0
60566.0,147191.0,96591.0,249360.0
60560.0,147165.0,96579.0,249336.0
60564.0,147180.0,96608.0,249345.0
60558.0,147185.0,96601.0,249360.0
60559.0,147180.0,96618.0,249349.0
60569.0,147177.0,96612.0,249372.0
60558.0,147148.0,96611.0,249350.0
60541.0,147149.0,96609.0,249322.0
60556.0,147140.0,96620.0,249329.0
60540.0,147129.0,96619.0,249362.0
60540.0,147146.0,96623.0,249343.0
60559.0,147130.0,96630.0,249330.0
60549.0,147140.0,96632.0,249329.0
60539.0,147159.0,96638.0,249356.0
60565.0,147166.0,96651.0,249419.0
60546.0,147155.0,96685.0,249424.0
60553.0,147196.0,96675.0,249438.0
60569.0,147194.0,96687.0,249428.0
60572.0,147193.0,96649.0,249418.0
60573.0,147208.0,96666.0,249420.0
60570.0,147226.0,96682.0,249433.0
60571.0,147222.0,96675.0,249363.0
60572.0,147228.0,96675.0,249395.0
60585.0,147246.0,96678.0,249367.0
60582.0,147230.0,96678.0,249353.0
60579.0,147248.0,96692.0,249395.0
60588.0,147263.0,96693.0,249386.0
60593.0,147294.0,96710.0,249423.0
60596.0,147286.0,96718.0,249436.0
60593.0,147284.0,96714.0,249459.0
60600.0,147303.0,96729.0,249447.0
60611.0,147311.0,96725.0,249432.0
60613.0,147320.0,96708.0,249424.0
60611.0,147337.0,96703.0,249420.0
60607.0,147340.0,96709.0,249406.0
60598.0,147369.0,96743.0,249450.0
60626.0,147357.0,96732.0,249451.0
60637.0,147364.0,96739.0,249436.0
60630.0,147386.0,96730.0,249451.0
60638.0,147416.0,96754.0,249464.0
60634.0,147425.0,96750.0,249488.0
60666.0,147415.0,96758.0,249481.0
60655.0,147433.0,96763.0,249470.0
60649.0,147451.0,96754.0,249437.0
60659.0,147460.0,96733.0,249455.0
60650.0,147458.0,96750.0,249452.0
60668.0,147466.0,96774.0,249445.0
60646.0,147448.0,96760.0,249481.0
60656.0,147438.0,96777.0,249444.0
60644.0,147403.0,96782.0,249452.0
60635.0,147370.0,96784.0,249439.0
60622.0,147357.0,96767.0,249397.0
60614.0,147301.0,96747.0,249370.0
60606.0,147297.0,96776.0,249350.0
60594.0,147257.0,96760.0,249294.0
60600.0,147220.0,96749.0,249319.0
60581.0,147187.0,96735.0,249269.0
60580.0,147168.0,96744.0,249275.0
60568.0,147153.0,96746.0,249270.0
60558.0,147126.0,96739.0,249214.0
60547.0,147114.0,96744.0,249220.0
60549.0,147099.0,96742.0,249286.0
60541.0,147089.0,96748.0,249250.0
60533.0,147079.0,96726.0,249229.0
60528.0,147045.0,96747.0,249225.0
60529.0,147057.0,96745.0,249249.0
60521.0,147029.0,96713.0,249230.0
60516.0,147009.0,96730.0,249229.0
60516.0,146987.0,96742.0,249226.0
60506.0,146981.0,96731.0,249216.0
60489.0,147015.0,96750.0,249248.0
60513.0,146998.0,96751.0,249273.0
60517.0,146989.0,96758.0,249252.0
