65072.0,159735.0,101377.0,259294.0
65058.0,159749.0,101384.0,259299.0
65046.0,159733.0,101392.0,259333.0
65049.0,159724.0,101402.0,259330.0
65055.0,159729.0,101404.0,259361.0
65033.0,159723.0,101399.0,259386.0
65050.0,159734.0,101415.0,259368.0
65052.0,159703.0,101427.0,259390.0
65043.0,159706.0,101431.0,259412.0
65027.0,159698.0,101442.0,259432.0
65041.0,159701.0,101445.0,259447.0
65049.0,159706.0,101454.0,259485.0
65062.0,159684.0,101492.0,259476.0
65038.0,159686.0,101491.0,259497.0
65039.0,159687.0,101492.0,259489.0
65022.0,159706.0,101474.0,259482.0
65028.0,159708.0,101486.0,259475.0
65030.0,159706.0,101501.0,259481.0
65024.0,159718.0,101494.0,259501.0
65037.0,159709.0,101523.0,259534.0
65031.0,159720.0,101573.0,259577.0
65024.0,159714.0,101562.0,259603.0
65018.0,159738.0,101566.0,259603.0
65033.0,159716.0,101583.0,259593.0
65057.0,159728.0,101562.0,259603.0
65035.0,159740.0,101573.0,259563.0
65045.0,159719.0,101551.0,259525.0
65030.0,159685.0,101538.0,259515.0
64986.0,159636.0,101552.0,259499.0
65013.0,159668.0,101543.0,259520.0
65012.0,159658.0,101586.0,259539.0
65010.0,159625.0,101577.0,259531.0
65005.0,159606.0,101581.0,259556.0
64996.0,159584.0,101602.0,259589.0
64990.0,159613.0,101600.0,259588.0
64988.0,159606.0,101617.0,259617.0
64980.0,159591.0,101619.0,259639.0
64989.0,159568.0,101640.0,259575.0
64981.0,159542.0,101613.0,259566.0
64976.0,159528.0,101606.0,259595.0
64983.0,159514.0,101590.0,259618.0
64953.0,159492.0,101579.0,259521.0
64949.0,159467.0,101568.0,259546.0
64945.0,159442.0,101545.0,259466.0
64922.0,159445.0,101544.0,259462.0
64943.0,159410.0,101512.0,259446.0
64925.0,159376.0,101515.0,259449.0
64912.0,159368.0,101515.0,259390.0
64881.0,159358.0,101483.0,259316.0
64901.0,159333.0,101482.0,259292.0
64879.0,159306.0,101434.0,259266.0
64874.0,159299.0,101397.0,259207.0
64882.0,159282.0,101399.0,259142.0
64847.0,159249.0,101376.0,259136.0
64854.0,159241.0,101347.0,259108.0
64838.0,159197.0,101331.0,259070.0
64848.0,159171.0,101332.0,259017.0
64840.0,159170.0,101323.0,259069.0
64827.0,159160.0,101288.0,258992.0
64853.0,159179.0,101050.0,258655.0
64845.0,159197.0,100728.0,258018.0
64867.0,159186.0,100452.0,257475.0
64855.0,159203.0,100292.0,256995.0
64876.0,159207.0,100111.0,256643.0
64880.0,159238.0,99978.0,256263.0
64879.0,159267.0,99815.0,255840.0
64890.0,159296.0,99550.0,255179.0
64894.0,159341.0,99462.0,255058.0
64905.0,159417.0,99288.0,254762.0
64948.0,159483.0,99113.0,254382.0
64955.0,159562.0,98996.0,254148.0
64985.0,159661.0,98995.0,254131.0
65019.0,159738.0,99062.0,254333.0
65052.0,159813.0,99120.0,254485.0
65077.0,159903.0,99258.0,254736.0
65125.0,160051.0,99508.0,255210.0
65164.0,160209.0,99773.0,255758.0
65227.0,160387.0,99995.0,256211.0
65257.0,160509.0,100138.0,256535.0
65295.0,160559.0,100331.0,256874.0
65326.0,160664.0,100507.0,257168.0
65355.0,160683.0,100615.0,257461.0
65346.0,160693.0,100716.0,257673.0
65365.0,160688.0,100767.0,257825.0
65368.0,160624.0,100865.0,257945.0
65368.0,160605.0,100956.0,258142.0
65344.0,160566.0,101095.0,258357.0
65329.0,160448.0,101327.0,258778.0
65296.0,160347.0,101663.0,259426.0
65265.0,160219.0,102058.0,260266.0
65233.0,160103.0,102499.0,261169.0
65197.0,159974.0,102877.0,261993.0
65138.0,159845.0,103210.0,262758.0
65098.0,159675.0,103449.0,263245.0
65048.0,159592.0,103558.0,263464.0
64961.0,159354.0,103543.0,263537.0
64958.0,159303.0,103586.0,263596.0
64941.0,159237.0,103690.0,263778.0
64908.0,159171.0,103880.0,264152.0
64891.0,159101.0,104154.0,264836.0
64840.0,159046.0,104579.0,265643.0
64820.0,158954.0,104951.0,266430.0
64795.0,158879.0,105264.0,267076.0
64766.0,158796.0,105530.0,267662.0
64732.0,158707.0,105757.0,268135.0
64701.0,158644.0,105886.0,268429.0
64668.0,158558.0,105974.0,268679.0
64650.0,158518.0,106047.0,268778.0
64631.0,158435.0,106143.0,268943.0
64613.0,158348.0,106236.0,269242.0
64580.0,158310.0,106347.0,269506.0
64560.0,158276.0,106420.0,269658.0
64534.0,158203.0,106443.0,269713.0
64538.0,158129.0,106533.0,269888.0
64490.0,158099.0,106626.0,270104.0
64489.0,158041.0,106688.0,270208.0
64468.0,157983.0,106747.0,270350.0
64420.0,157940.0,106787.0,270482.0
64421.0,157894.0,106817.0,270571.0
64413.0,157840.0,106871.0,270591.0
64381.0,157806.0,106886.0,270659.0
64373.0,157781.0,106907.0,270669.0
64357.0,157737.0,106895.0,270683.0
64347.0,157699.0,106849.0,270627.0
64343.0,157676.0,106850.0,270626.0
64317.0,157647.0,106852.0,270561.0
64316.0,157605.0,106798.0,270517.0
64312.0,157598.0,106778.0,270461.0
64298.0,157566.0,106761.0,270451.0
64284.0,157535.0,106749.0,270468.0
64277.0,157506.0,106768.0,270447.0
64282.0,157483.0,106730.0,270437.0
64254.0,157445.0,106730.0,270415.0
64240.0,157445.0,106750.0,270411.0
64243.0,157378.0,106719.0,270396.0
64226.0,157381.0,106691.0,270286.0
64225.0,157351.0,106674.0,270258.0
64221.0,157315.0,106673.0,270211.0
64214.0,157309.0,106624.0,270169.0
64206.0,157301.0,106587.0,270121.0
64191.0,157290.0,106583.0,270083.0
64199.0,157231.0,106579.0,270069.0
64183.0,157243.0,106551.0,270038.0
64149.0,157233.0,106557.0,270004.0
64180.0,157205.0,106539.0,269963.0
64183.0,157197.0,106521.0,269999.0
64156.0,157185.0,106472.0,269913.0
64136.0,157174.0,106489.0,269881.0
64154.0,157162.0,106457.0,269822.0
64155.0,157173.0,106412.0,269778.0
64139.0,157161.0,106414.0,269719.0
64143.0,157160.0,106388.0,269668.0
64151.0,157171.0,106380.0,269680.0
64147.0,157147.0,106356.0,269637.0
64134.0,157161.0,106373.0,269646.0
64135.0,157167.0,106405.0,269693.0
64139.0,157136.0,106405.0,269755.0
64135.0,157150.0,106417.0,269771.0
64125.0,157112.0,106397.0,269757.0
64123.0,157123.0,106406.0,269747.0
64122.0,157108.0,106365.0,269721.0
64112.0,157116.0,106352.0,269674.0
64112.0,157130.0,106365.0,269663.0
64118.0,157111.0,106383.0,269711.0
64126.0,157124.0,106410.0,269776.0
64108.0,157103.0,106435.0,269842.0
64115.0,157102.0,106446.0,269947.0
64103.0,157103.0,106465.0,269988.0
64099.0,157091.0,106511.0,270063.0
64096.0,157054.0,106509.0,270162.0
64089.0,157059.0,106522.0,270132.0
64082.0,157062.0,106514.0,270136.0
64074.0,157033.0,106515.0,270132.0
64076.0,157009.0,106510.0,270144.0
64064.0,156973.0,106507.0,270121.0
64046.0,156942.0,106550.0,270186.0
64038.0,156910.0,106583.0,270216.0
64007.0,156838.0,106595.0,270253.0
64001.0,156806.0,106614.0,270306.0
63962.0,156752.0,106649.0,270330.0
63963.0,156679.0,106645.0,270297.0
63954.0,156644.0,106661.0,270350.0
63934.0,156609.0,106670.0,270304.0
63914.0,156548.0,106672.0,270337.0
63901.0,156533.0,106692.0,270408.0
63894.0,156482.0,106698.0,270449.0
63864.0,156442.0,106725.0,270448.0
63856.0,156399.0,106739.0,270473.0
63839.0,156402.0,106748.0,270496.0
63827.0,156349.0,106759.0,270485.0
63817.0,156338.0,106770.0,270502.0
63816.0,156288.0,106756.0,270488.0
63801.0,156264.0,106772.0,270512.0
63783.0,156251.0,106776.0,270504.0
63775.0,156233.0,106784.0,270555.0
63765.0,156207.0,106801.0,270600.0
63766.0,156191.0,106823.0,270590.0
63756.0,156167.0,106808.0,270664.0
63733.0,156151.0,106826.0,270642.0
63740.0,156141.0,106862.0,270690.0
63729.0,156113.0,106857.0,270707.0
63717.0,156106.0,106850.0,270713.0
63722.0,156085.0,106864.0,270711.0
63702.0,156053.0,106889.0,270787.0
63700.0,156058.0,106855.0,270765.0
63703.0,156016.0,106866.0,270810.0
63672.0,155979.0,106877.0,270814.0
63659.0,155958.0,106925.0,270881.0
63651.0,155950.0,106938.0,270949.0
63655.0,155915.0,106965.0,271015.0
63643.0,155885.0,107015.0,271137.0
63624.0,155888.0,107060.0,271139.0
63620.0,155852.0,107103.0,271242.0
63613.0,155838.0,107120.0,271308.0
63588.0,155785.0,107133.0,271320.0
63585.0,155778.0,107155.0,271374.0
63581.0,155764.0,107151.0,271360.0
63587.0,155767.0,107143.0,271351.0
63579.0,155755.0,107121.0,271342.0
63569.0,155753.0,107085.0,271261.0
63564.0,155764.0,107076.0,271217.0
63569.0,155750.0,107054.0,271198.0
63563.0,155766.0,107047.0,271184.0
63588.0,155772.0,107008.0,271060.0
63577.0,155780.0,106978.0,271026.0
63581.0,155799.0,106955.0,270931.0
63599.0,155805.0,106915.0,270874.0
63589.0,155844.0,106848.0,270795.0
63595.0,155852.0,106809.0,270721.0
63612.0,155872.0,106763.0,270640.0
63625.0,155892.0,106723.0,270489.0
63628.0,155930.0,106653.0,270434.0
63622.0,155953.0,106615.0,270312.0
63638.0,155955.0,106574.0,270253.0
63651.0,155992.0,106562.0,270227.0
63676.0,156009.0,106520.0,270152.0
63665.0,156053.0,106498.0,270103.0
63685.0,156052.0,106486.0,270057.0
63672.0,156073.0,106458.0,269969.0
63679.0,156107.0,106399.0,269893.0
63687.0,156132.0,106395.0,269860.0
63704.0,156134.0,106387.0,269794.0
63703.0,156150.0,106372.0,269797.0
63712.0,156179.0,106342.0,269734.0
63725.0,156181.0,106338.0,269656.0
63715.0,156216.0,106292.0,269647.0
63723.0,156248.0,106254.0,269557.0
63729.0,156267.0,106230.0,269533.0
63771.0,156258.0,106233.0,269431.0
63753.0,156299.0,106195.0,269420.0
63754.0,156306.0,106204.0,269389.0
63750.0,156312.0,106171.0,269328.0
63754.0,156308.0,106165.0,269296.0
63740.0,156265.0,106152.0,269270.0
63746.0,156239.0,106126.0,269269.0
63719.0,156234.0,106130.0,269220.0
63701.0,156173.0,106112.0,269166.0
63705.0,156165.0,106079.0,269065.0
63685.0,156113.0,106080.0,269059.0
63679.0,156112.0,106043.0,268993.0
63672.0,156081.0,106041.0,268985.0
63661.0,156048.0,106012.0,268904.0
63651.0,156052.0,106002.0,268862.0
63642.0,155991.0,105971.0,268820.0
63647.0,155991.0,105964.0,268777.0
63627.0,156001.0,105925.0,268714.0
63611.0,155938.0,105907.0,268677.0
63618.0,155975.0,105912.0,268644.0
63626.0,155938.0,105899.0,268618.0
63608.0,155928.0,105898.0,268618.0
63593.0,155889.0,105898.0,268606.0
63588.0,155895.0,105918.0,268647.0
63589.0,155870.0,105913.0,268628.0
63577.0,155857.0,105906.0,268638.0
63582.0,155825.0,105890.0,268596.0
63570.0,155821.0,105880.0,268555.0
63573.0,155817.0,105872.0,268544.0
63563.0,155820.0,105862.0,268541.0
63557.0,155813.0,105845.0,268489.0
63566.0,155824.0,105833.0,268485.0
63557.0,155786.0,105838.0,268502.0
63551.0,155796.0,105838.0,268466.0
63547.0,155795.0,105831.0,268428.0
63545.0,155781.0,105813.0,268461.0
63554.0,155749.0,105828.0,268401.0
63539.0,155775.0,105812.0,268432.0
63549.0,155751.0,105792.0,268420.0
63538.0,155758.0,105794.0,268411.0
63532.0,155738.0,105779.0,268362.0
63539.0,155732.0,105776.0,268333.0
63538.0,155724.0,105765.0,268326.0
63516.0,155729.0,105759.0,268354.0
63516.0,155734.0,105764.0,268302.0
63528.0,155711.0,105757.0,268317.0
63507.0,155728.0,105734.0,268283.0
63514.0,155722.0,105736.0,268273.0
63518.0,155725.0,105751.0,268285.0
63510.0,155736.0,105735.0,268243.0
63515.0,155736.0,105722.0,268225.0
63504.0,155712.0,105701.0,268223.0
63521.0,155718.0,105714.0,268204.0
63514.0,155736.0,105714.0,268215.0
63510.0,155731.0,105691.0,268159.0
63515.0,155727.0,105690.0,268198.0
63530.0,155739.0,105671.0,268161.0
63531.0,155725.0,105663.0,268128.0
63529.0,155743.0,105656.0,268139.0
63524.0,155775.0,105658.0,268102.0
63540.0,155755.0,105639.0,268104.0
63534.0,155766.0,105641.0,268106.0
63537.0,155790.0,105653.0,268093.0
63537.0,155812.0,105648.0,268114.0
63538.0,155806.0,105625.0,268141.0
63540.0,155816.0,105657.0,268106.0
63540.0,155817.0,105648.0,268105.0
63515.0,155815.0,105615.0,268101.0
63540.0,155828.0,105626.0,268064.0
63534.0,155849.0,105631.0,268043.0
63537.0,155853.0,105611.0,268058.0
63539.0,155849.0,105593.0,268079.0
63552.0,155853.0,105607.0,268035.0
63552.0,155857.0,105593.0,268051.0
63555.0,155866.0,105601.0,268028.0
63570.0,155883.0,105593.0,268031.0
63552.0,155895.0,105597.0,268042.0
63564.0,155864.0,105597.0,268028.0
63571.0,155912.0,105598.0,268031.0
63557.0,155904.0,105590.0,268027.0
63565.0,155918.0,105579.0,267988.0
63569.0,155926.0,105585.0,268023.0
63572.0,155899.0,105590.0,268012.0
63584.0,155914.0,105581.0,267998.0
63552.0,155909.0,105583.0,267985.0
63554.0,155891.0,105566.0,267961.0
63551.0,155863.0,105558.0,267946.0
63544.0,155822.0,105573.0,267939.0
63515.0,155783.0,105587.0,267902.0
63514.0,155731.0,105559.0,267910.0
63501.0,155712.0,105568.0,267898.0
63474.0,155658.0,105560.0,267874.0
63478.0,155624.0,105553.0,267850.0
63455.0,155590.0,105529.0,267842.0
63445.0,155567.0,105541.0,267841.0
63434.0,155564.0,105532.0,267834.0
63431.0,155526.0,105519.0,267806.0
63426.0,155530.0,105537.0,267768.0
63417.0,155511.0,105509.0,267793.0
63414.0,155515.0,105505.0,267765.0
63416.0,155516.0,105497.0,267777.0
63446.0,155524.0,105467.0,267735.0
63413.0,155514.0,105497.0,267765.0
63424.0,155487.0,105475.0,267693.0
63414.0,155482.0,105464.0,267703.0
63423.0,155460.0,105488.0,267717.0
63409.0,155466.0,105464.0,267710.0
63398.0,155466.0,105463.0,267697.0
63403.0,155467.0,105491.0,267727.0
63403.0,155433.0,105468.0,267713.0
63382.0,155456.0,105481.0,267730.0
63409.0,155442.0,105474.0,267702.0
63394.0,155431.0,105470.0,267707.0
63379.0,155433.0,105472.0,267691.0
63384.0,155440.0,105469.0,267694.0
63369.0,155441.0,105475.0,267723.0
63391.0,155446.0,105471.0,267662.0
63391.0,155426.0,105468.0,267708.0
63396.0,155364.0,105484.0,267667.0
63375.0,155390.0,105478.0,267698.0
63368.0,155402.0,105454.0,267702.0
63368.0,155381.0,105458.0,267681.0
63359.0,155378.0,105477.0,267692.0
63372.0,155380.0,105466.0,267636.0
63352.0,155372.0,105444.0,267684.0
63350.0,155366.0,105452.0,267700.0
63352.0,155367.0,105458.0,267685.0
63348.0,155368.0,105465.0,267698.0
63344.0,155370.0,105466.0,267668.0
63349.0,155365.0,105468.0,267708.0
63365.0,155385.0,105462.0,267672.0
63357.0,155385.0,105451.0,267673.0
63353.0,155366.0,105448.0,267671.0
63347.0,155369.0,105444.0,267722.0
63355.0,155386.0,105469.0,267709.0
63326.0,155347.0,105449.0,267677.0
63354.0,155386.0,105455.0,267694.0
63347.0,155391.0,105448.0,267708.0
63365.0,155379.0,105453.0,267704.0
63354.0,155392.0,105447.0,267670.0
63355.0,155402.0,105448.0,267697.0
63341.0,155400.0,105460.0,267695.0
63363.0,155427.0,105453.0,267706.0
63373.0,155424.0,105447.0,267698.0
63362.0,155440.0,105440.0,267662.0
63364.0,155441.0,105438.0,267669.0
63361.0,155461.0,105448.0,267686.0
63366.0,155460.0,105444.0,267681.0
63375.0,155482.0,105452.0,267686.0
63376.0,155481.0,105449.0,267698.0
63392.0,155479.0,105438.0,267713.0
63381.0,155488.0,105438.0,267690.0
63386.0,155520.0,105432.0,267717.0
63380.0,155514.0,105422.0,267707.0
63389.0,155524.0,105452.0,267695.0
63393.0,155520.0,105445.0,267723.0
63393.0,155542.0,105438.0,267678.0
63383.0,155560.0,105451.0,267694.0
63395.0,155545.0,105428.0,267692.0
63394.0,155548.0,105452.0,267719.0
63400.0,155574.0,105444.0,267735.0
63401.0,155561.0,105481.0,267734.0
63392.0,155571.0,105445.0,267755.0
63399.0,155560.0,105465.0,267792.0
63390.0,155538.0,105458.0,267764.0
63380.0,155511.0,105461.0,267771.0
63377.0,155500.0,105480.0,267766.0
63347.0,155456.0,105471.0,267753.0
63345.0,155417.0,105493.0,267757.0
63332.0,155413.0,105480.0,267779.0
63319.0,155351.0,105496.0,267795.0
63323.0,155308.0,105484.0,267780.0
63302.0,155280.0,105482.0,267778.0
63294.0,155253.0,105493.0,267768.0
63283.0,155230.0,105479.0,267763.0
63280.0,155213.0,105491.0,267743.0
63248.0,155169.0,105493.0,267748.0
63263.0,155187.0,105493.0,267730.0
63261.0,155181.0,105480.0,267785.0
63253.0,155166.0,105474.0,267753.0
63241.0,155151.0,105487.0,267790.0
63234.0,155131.0,105478.0,267773.0
63237.0,155134.0,105486.0,267759.0
63222.0,155097.0,105476.0,267718.0
63230.0,155115.0,105458.0,267747.0
63221.0,155097.0,105473.0,267708.0
63227.0,155108.0,105471.0,267760.0
63231.0,155103.0,105485.0,267715.0
63229.0,155094.0,105475.0,267736.0
63215.0,155099.0,105468.0,267715.0
63219.0,155088.0,105465.0,267728.0
63209.0,155082.0,105455.0,267748.0
63215.0,155095.0,105454.0,267718.0
63223.0,155086.0,105481.0,267683.0
63224.0,155095.0,105447.0,267669.0
63207.0,155107.0,105437.0,267698.0
63215.0,155085.0,105430.0,267706.0
63226.0,155084.0,105450.0,267678.0
63219.0,155085.0,105446.0,267655.0
63209.0,155086.0,105439.0,267654.0
63203.0,155094.0,105416.0,267642.0
63201.0,155097.0,105411.0,267667.0
63209.0,155076.0,105413.0,267648.0
63205.0,155105.0,105403.0,267595.0
63204.0,155088.0,105393.0,267623.0
63216.0,155087.0,105397.0,267605.0
63215.0,155097.0,105410.0,267601.0
63219.0,155080.0,105404.0,267599.0
63220.0,155085.0,105409.0,267592.0
63225.0,155105.0,105396.0,267580.0
63223.0,155107.0,105366.0,267562.0
63209.0,155128.0,105388.0,267587.0
63226.0,155135.0,105393.0,267578.0
63231.0,155152.0,105367.0,267553.0
63226.0,155136.0,105374.0,267514.0
63234.0,155162.0,105347.0,267534.0
63235.0,155158.0,105350.0,267544.0
63235.0,155187.0,105318.0,267518.0
63254.0,155172.0,105298.0,267461.0
63250.0,155178.0,105321.0,267481.0
63252.0,155218.0,105282.0,267514.0
63258.0,155231.0,105319.0,267478.0
63259.0,155222.0,105319.0,267449.0
63260.0,155240.0,105299.0,267430.0
63276.0,155260.0,105303.0,267474.0
63275.0,155276.0,105285.0,267479.0
63269.0,155278.0,105310.0,267490.0
63277.0,155280.0,105299.0,267449.0
63279.0,155292.0,105312.0,267456.0
63287.0,155295.0,105302.0,267465.0
63287.0,155329.0,105308.0,267456.0
63294.0,155310.0,105285.0,267455.0
63296.0,155352.0,105292.0,267448.0
63303.0,155364.0,105288.0,267416.0
63317.0,155371.0,105275.0,267406.0
63316.0,155352.0,105297.0,267427.0
63315.0,155371.0,105293.0,267422.0
63295.0,155381.0,105287.0,267401.0
63311.0,155361.0,105292.0,267413.0
63308.0,155354.0,105283.0,267402.0
63296.0,155340.0,105288.0,267370.0
63291.0,155313.0,105280.0,267369.0
63286.0,155277.0,105274.0,267364.0
63281.0,155261.0,105278.0,267359.0
63266.0,155239.0,105235.0,267340.0
63254.0,155219.0,105253.0,267337.0
63266.0,155213.0,105243.0,267325.0
63255.0,155207.0,105270.0,267319.0
63265.0,155194.0,105250.0,267354.0
63257.0,155201.0,105241.0,267318.0
63252.0,155195.0,105243.0,267279.0
63253.0,155184.0,105233.0,267292.0
63250.0,155165.0,105236.0,267295.0
63248.0,155190.0,105225.0,267297.0
63221.0,155182.0,105221.0,267342.0
63256.0,155190.0,105217.0,267307.0
63237.0,155192.0,105251.0,267335.0
63269.0,155193.0,105224.0,267260.0
