67397.0,167355.0,112604.0,281920.0
67394.0,167372.0,112598.0,281917.0
67398.0,167411.0,112589.0,281937.0
67413.0,167426.0,112587.0,281892.0
67398.0,167419.0,112597.0,281914.0
67412.0,167459.0,112588.0,281915.0
67414.0,167453.0,112588.0,281944.0
67424.0,167484.0,112616.0,281988.0
67438.0,167487.0,112615.0,281968.0
67439.0,167505.0,112615.0,281984.0
67444.0,167519.0,112629.0,281979.0
67449.0,167524.0,112613.0,281986.0
67448.0,167558.0,112639.0,282033.0
67418.0,167527.0,112646.0,282033.0
67459.0,167574.0,112640.0,282047.0
67454.0,167557.0,112660.0,282070.0
67453.0,167556.0,112672.0,282028.0
67432.0,167565.0,112677.0,282024.0
67450.0,167532.0,112664.0,282005.0
67445.0,167542.0,112655.0,282013.0
67451.0,167522.0,112663.0,282046.0
67412.0,167512.0,112643.0,281991.0
67439.0,167471.0,112656.0,281996.0
67441.0,167465.0,112650.0,282002.0
67420.0,167463.0,112638.0,281973.0
67432.0,167456.0,112666.0,282002.0
67428.0,167459.0,112638.0,281947.0
67415.0,167450.0,112617.0,281987.0
67420.0,167428.0,112619.0,281950.0
67420.0,167463.0,112622.0,281905.0
67408.0,167447.0,112589.0,281932.0
67416.0,167441.0,112578.0,281842.0
67418.0,167450.0,112559.0,281846.0
67402.0,167447.0,112522.0,281794.0
67406.0,167452.0,112521.0,281786.0
67405.0,167452.0,112495.0,281746.0
67406.0,167435.0,112478.0,281723.0
67414.0,167441.0,112462.0,281697.0
67416.0,167428.0,112457.0,281673.0
67413.0,167451.0,112449.0,281677.0
67394.0,167440.0,112450.0,281630.0
67416.0,167433.0,112449.0,281591.0
67404.0,167443.0,112383.0,281587.0
67408.0,167422.0,112379.0,281490.0
67405.0,167443.0,112302.0,281361.0
67396.0,167446.0,112170.0,281182.0
67379.0,167388.0,111995.0,280879.0
67361.0,167340.0,111686.0,280360.0
67352.0,167298.0,111206.0,279579.0
67305.0,167233.0,110439.0,278285.0
67274.0,167086.0,109284.0,276334.0
67208.0,166925.0,107653.0,273605.0
67140.0,166722.0,105486.0,269873.0
67032.0,166525.0,103384.0,265928.0
66985.0,166405.0,101865.0,262578.0
66944.0,166311.0,100874.0,260190.0
66911.0,166262.0,100381.0,258794.0
66886.0,166248.0,100030.0,257876.0
66887.0,166251.0,99990.0,257689.0
66885.0,166264.0,100089.0,257753.0
66891.0,166243.0,100245.0,257739.0
66893.0,166220.0,100488.0,257522.0
66915.0,166211.0,100688.0,257171.0
66938.0,166183.0,100603.0,256543.0
66972.0,166187.0,100594.0,256132.0
67004.0,166185.0,100716.0,256130.0
67036.0,166186.0,100792.0,256166.0
67049.0,166150.0,100868.0,256243.0
67040.0,166081.0,100977.0,256451.0
66994.0,165979.0,101110.0,256798.0
66942.0,165834.0,101270.0,257290.0
66878.0,165738.0,101437.0,258008.0
66797.0,165566.0,101669.0,258791.0
66715.0,165377.0,101975.0,259552.0
66635.0,165199.0,102314.0,260295.0
66548.0,165002.0,102669.0,261000.0
66445.0,164811.0,103087.0,261806.0
66366.0,164621.0,103532.0,262735.0
66277.0,164411.0,103982.0,263597.0
66184.0,164155.0,104369.0,264381.0
66092.0,163968.0,104719.0,265117.0
66014.0,163734.0,105058.0,265821.0
65917.0,163523.0,105372.0,266416.0
65841.0,163303.0,105647.0,266941.0
65741.0,163094.0,105914.0,267447.0
65663.0,162887.0,106175.0,267979.0
65571.0,162715.0,106455.0,268544.0
65510.0,162471.0,106734.0,269031.0
65410.0,162254.0,107002.0,269536.0
65333.0,162072.0,107245.0,270028.0
65250.0,161862.0,107505.0,270460.0
65191.0,161696.0,107770.0,270979.0
65124.0,161522.0,108055.0,271463.0
65062.0,161378.0,108330.0,271991.0
65001.0,161224.0,108620.0,272519.0
64947.0,161080.0,108905.0,273090.0
64878.0,160920.0,109209.0,273663.0
64830.0,160761.0,109496.0,274190.0
64782.0,160604.0,109716.0,274532.0
64742.0,160466.0,109905.0,274895.0
64679.0,160332.0,110078.0,275167.0
64653.0,160209.0,110220.0,275432.0
64616.0,160077.0,110321.0,275573.0
64586.0,159945.0,110412.0,275668.0
64550.0,159850.0,110524.0,275871.0
64509.0,159740.0,110589.0,276051.0
64478.0,159670.0,110671.0,276156.0
64456.0,159575.0,110714.0,276269.0
64427.0,159485.0,110774.0,276225.0
64404.0,159385.0,110742.0,276230.0
64379.0,159286.0,110723.0,276187.0
64357.0,159178.0,110704.0,276080.0
64337.0,159066.0,110659.0,275947.0
64300.0,158965.0,110592.0,275842.0
64283.0,158848.0,110559.0,275728.0
64269.0,158781.0,110519.0,275641.0
64234.0,158678.0,110508.0,275593.0
64209.0,158607.0,110477.0,275545.0
64172.0,158491.0,110460.0,275512.0
64147.0,158403.0,110443.0,275477.0
64123.0,158331.0,110422.0,275486.0
64099.0,158266.0,110386.0,275469.0
64070.0,158183.0,110372.0,275419.0
64057.0,158113.0,110348.0,275387.0
64017.0,158025.0,110354.0,275385.0
64010.0,157954.0,110348.0,275367.0
63990.0,157896.0,110359.0,275430.0
63960.0,157823.0,110379.0,275488.0
63945.0,157744.0,110400.0,275541.0
63902.0,157639.0,110409.0,275558.0
63874.0,157584.0,110448.0,275615.0
63852.0,157497.0,110472.0,275646.0
63832.0,157423.0,110499.0,275681.0
63787.0,157367.0,110536.0,275724.0
63761.0,157307.0,110559.0,275773.0
63751.0,157219.0,110592.0,275850.0
63744.0,157138.0,110613.0,275907.0
63718.0,157113.0,110614.0,275919.0
63700.0,157029.0,110644.0,275935.0
63686.0,156963.0,110657.0,275936.0
63669.0,156932.0,110662.0,275952.0
63655.0,156898.0,110705.0,275994.0
63651.0,156820.0,110702.0,276084.0
63636.0,156792.0,110761.0,276076.0
63619.0,156722.0,110775.0,276111.0
63591.0,156658.0,110804.0,276147.0
63586.0,156634.0,110828.0,276217.0
63575.0,156572.0,110855.0,276197.0
63563.0,156527.0,110887.0,276247.0
63539.0,156460.0,110899.0,276218.0
63537.0,156424.0,110950.0,276314.0
63514.0,156397.0,110964.0,276345.0
63513.0,156352.0,110994.0,276377.0
63499.0,156311.0,111005.0,276406.0
63477.0,156295.0,111046.0,276435.0
63475.0,156238.0,111061.0,276458.0
63471.0,156210.0,111092.0,276494.0
63460.0,156193.0,111101.0,276580.0
63451.0,156166.0,111119.0,276590.0
63427.0,156132.0,111142.0,276652.0
63429.0,156110.0,111163.0,276652.0
63425.0,156100.0,111171.0,276678.0
63413.0,156058.0,111206.0,276701.0
63409.0,156034.0,111188.0,276708.0
63394.0,156000.0,111206.0,276740.0
63390.0,156011.0,111208.0,276765.0
63401.0,155977.0,111207.0,276762.0
63377.0,155945.0,111233.0,276800.0
63379.0,155950.0,111261.0,276823.0
63369.0,155946.0,111267.0,276837.0
63367.0,155924.0,111244.0,276836.0
63359.0,155913.0,111270.0,276818.0
63357.0,155918.0,111272.0,276829.0
63368.0,155903.0,111275.0,276824.0
63369.0,155876.0,111282.0,276849.0
63363.0,155876.0,111282.0,276851.0
63353.0,155849.0,111268.0,276846.0
63350.0,155840.0,111272.0,276823.0
63338.0,155778.0,111284.0,276813.0
63336.0,155772.0,111270.0,276850.0
63328.0,155744.0,111271.0,276802.0
63310.0,155707.0,111261.0,276791.0
63309.0,155659.0,111253.0,276766.0
63291.0,155626.0,111248.0,276746.0
63265.0,155598.0,111273.0,276773.0
63268.0,155525.0,111269.0,276732.0
63276.0,155502.0,111253.0,276731.0
63245.0,155455.0,111257.0,276743.0
63227.0,155415.0,111242.0,276690.0
63211.0,155397.0,111242.0,276690.0
63218.0,155348.0,111237.0,276704.0
63194.0,155309.0,111244.0,276672.0
63174.0,155286.0,111244.0,276671.0
63170.0,155251.0,111246.0,276687.0
63150.0,155178.0,111259.0,276664.0
63151.0,155180.0,111255.0,276700.0
63133.0,155169.0,111236.0,276687.0
63132.0,155098.0,111244.0,276644.0
63116.0,155102.0,111224.0,276674.0
63108.0,155080.0,111240.0,276645.0
63090.0,155031.0,111217.0,276632.0
63108.0,155041.0,111246.0,276636.0
63103.0,155019.0,111246.0,276597.0
63099.0,154981.0,111234.0,276591.0
63085.0,154965.0,111234.0,276598.0
63092.0,154957.0,111223.0,276584.0
63083.0,154946.0,111244.0,276553.0
63097.0,154932.0,111205.0,276561.0
63088.0,154904.0,111186.0,276545.0
63066.0,154865.0,111174.0,276475.0
63076.0,154879.0,111158.0,276486.0
63060.0,154856.0,111146.0,276467.0
63038.0,154820.0,111146.0,276394.0
63050.0,154817.0,111123.0,276386.0
63049.0,154806.0,111124.0,276436.0
63036.0,154798.0,111132.0,276390.0
63041.0,154768.0,111114.0,276390.0
63033.0,154750.0,111116.0,276424.0
63012.0,154719.0,111103.0,276366.0
63018.0,154707.0,111109.0,276351.0
63007.0,154685.0,111127.0,276369.0
62995.0,154670.0,111127.0,276400.0
62998.0,154649.0,111153.0,276418.0
62996.0,154629.0,111128.0,276394.0
62981.0,154613.0,111123.0,276400.0
62979.0,154598.0,111133.0,276421.0
62976.0,154583.0,111136.0,276402.0
62963.0,154572.0,111143.0,276405.0
62978.0,154545.0,111161.0,276453.0
62954.0,154530.0,111152.0,276446.0
62958.0,154507.0,111170.0,276431.0
62955.0,154493.0,111179.0,276474.0
62955.0,154490.0,111175.0,276503.0
62913.0,154472.0,111200.0,276448.0
62942.0,154448.0,111181.0,276553.0
62931.0,154442.0,111186.0,276498.0
62931.0,154431.0,111192.0,276501.0
62926.0,154450.0,111193.0,276541.0
62941.0,154434.0,111177.0,276530.0
62938.0,154436.0,111181.0,276528.0
62941.0,154453.0,111173.0,276529.0
62941.0,154435.0,111185.0,276548.0
62929.0,154424.0,111178.0,276537.0
62933.0,154428.0,111197.0,276575.0
62940.0,154428.0,111187.0,276559.0
62949.0,154409.0,111198.0,276553.0
62935.0,154417.0,111174.0,276560.0
62913.0,154421.0,111192.0,276564.0
62932.0,154399.0,111194.0,276579.0
62924.0,154405.0,111200.0,276610.0
62898.0,154388.0,111209.0,276538.0
62909.0,154399.0,111227.0,276601.0
62919.0,154393.0,111211.0,276593.0
62935.0,154386.0,111222.0,276606.0
62933.0,154387.0,111206.0,276613.0
62922.0,154376.0,111197.0,276613.0
62922.0,154415.0,111215.0,276598.0
62926.0,154397.0,111212.0,276609.0
62936.0,154410.0,111208.0,276657.0
62932.0,154411.0,111198.0,276661.0
62928.0,154398.0,111215.0,276636.0
62939.0,154392.0,111198.0,276597.0
62930.0,154406.0,111207.0,276611.0
62936.0,154448.0,111198.0,276597.0
62949.0,154423.0,111214.0,276658.0
62949.0,154439.0,111183.0,276666.0
62942.0,154441.0,111225.0,276622.0
62936.0,154412.0,111189.0,276592.0
62940.0,154437.0,111193.0,276631.0
62943.0,154457.0,111174.0,276618.0
62957.0,154466.0,111176.0,276639.0
62957.0,154453.0,111169.0,276621.0
62945.0,154475.0,111151.0,276593.0
62960.0,154501.0,111122.0,276624.0
62955.0,154485.0,111121.0,276614.0
62966.0,154479.0,111124.0,276624.0
62967.0,154507.0,111109.0,276616.0
62973.0,154517.0,111114.0,276579.0
62983.0,154508.0,111115.0,276599.0
62998.0,154524.0,111118.0,276645.0
62981.0,154544.0,111098.0,276588.0
62986.0,154531.0,111114.0,276564.0
62990.0,154556.0,111103.0,276605.0
63000.0,154584.0,111085.0,276618.0
63000.0,154565.0,111100.0,276574.0
62997.0,154572.0,111094.0,276595.0
62998.0,154594.0,111069.0,276559.0
63009.0,154615.0,111069.0,276545.0
63003.0,154635.0,111059.0,276533.0
62996.0,154639.0,111044.0,276534.0
63029.0,154650.0,111023.0,276513.0
63030.0,154665.0,111041.0,276516.0
63031.0,154679.0,111019.0,276523.0
63036.0,154709.0,111048.0,276514.0
63060.0,154717.0,111021.0,276522.0
63060.0,154722.0,111004.0,276529.0
63056.0,154744.0,111015.0,276485.0
63071.0,154762.0,110998.0,276486.0
63076.0,154793.0,110998.0,276476.0
63084.0,154799.0,110974.0,276484.0
63085.0,154805.0,110970.0,276481.0
63092.0,154798.0,110977.0,276452.0
63089.0,154817.0,110979.0,276458.0
63084.0,154839.0,110962.0,276454.0
63099.0,154873.0,110963.0,276478.0
63105.0,154843.0,110944.0,276424.0
63102.0,154861.0,110949.0,276429.0
63101.0,154905.0,110950.0,276391.0
63106.0,154906.0,110936.0,276419.0
63117.0,154907.0,110938.0,276427.0
63131.0,154908.0,110943.0,276418.0
63131.0,154909.0,110937.0,276434.0
63131.0,154952.0,110935.0,276409.0
63126.0,154955.0,110920.0,276423.0
63137.0,154945.0,110935.0,276435.0
63148.0,154983.0,110950.0,276432.0
63150.0,154978.0,110960.0,276475.0
63148.0,154976.0,110966.0,276457.0
63150.0,154987.0,110955.0,276478.0
63150.0,155007.0,110957.0,276500.0
63159.0,155012.0,110953.0,276471.0
63157.0,155034.0,110951.0,276459.0
63169.0,155053.0,110955.0,276494.0
63169.0,155055.0,110969.0,276500.0
63179.0,155054.0,110963.0,276477.0
63196.0,155062.0,110950.0,276490.0
63180.0,155092.0,110951.0,276462.0
63190.0,155119.0,110953.0,276529.0
63192.0,155113.0,110957.0,276541.0
63200.0,155124.0,110991.0,276542.0
63206.0,155122.0,110976.0,276550.0
63214.0,155152.0,110994.0,276546.0
63209.0,155126.0,111006.0,276560.0
63191.0,155092.0,111005.0,276557.0
63191.0,155057.0,111011.0,276546.0
63187.0,155052.0,111002.0,276539.0
63182.0,155036.0,111018.0,276530.0
63178.0,154999.0,111031.0,276530.0
63173.0,154959.0,111031.0,276530.0
63159.0,154942.0,111049.0,276527.0
63157.0,154898.0,111052.0,276526.0
63153.0,154845.0,111043.0,276539.0
63142.0,154860.0,111024.0,276542.0
63144.0,154834.0,111034.0,276550.0
63133.0,154821.0,111035.0,276500.0
63128.0,154794.0,111041.0,276557.0
63108.0,154788.0,111012.0,276536.0
63107.0,154751.0,111007.0,276517.0
63102.0,154730.0,110994.0,276484.0
63102.0,154746.0,110968.0,276472.0
63115.0,154719.0,110947.0,276433.0
63107.0,154722.0,110920.0,276397.0
63079.0,154719.0,110897.0,276432.0
63112.0,154759.0,110897.0,276343.0
63107.0,154738.0,110890.0,276313.0
63104.0,154745.0,110847.0,276323.0
63101.0,154742.0,110862.0,276338.0
63095.0,154736.0,110851.0,276318.0
63097.0,154740.0,110846.0,276343.0
63090.0,154744.0,110841.0,276329.0
63111.0,154709.0,110834.0,276279.0
63091.0,154708.0,110814.0,276270.0
63095.0,154710.0,110819.0,276286.0
63093.0,154680.0,110827.0,276283.0
63093.0,154669.0,110839.0,276254.0
63084.0,154686.0,110831.0,276244.0
63079.0,154666.0,110821.0,276282.0
63092.0,154679.0,110821.0,276290.0
63071.0,154661.0,110805.0,276281.0
63062.0,154680.0,110800.0,276262.0
63069.0,154653.0,110776.0,276247.0
63068.0,154640.0,110788.0,276229.0
63070.0,154649.0,110784.0,276202.0
63068.0,154626.0,110783.0,276202.0
63073.0,154642.0,110766.0,276235.0
63071.0,154642.0,110806.0,276203.0
63056.0,154627.0,110794.0,276241.0
63093.0,154625.0,110784.0,276224.0
63051.0,154617.0,110800.0,276245.0
63073.0,154629.0,110794.0,276279.0
63063.0,154615.0,110819.0,276324.0
63058.0,154614.0,110810.0,276279.0
63060.0,154623.0,110824.0,276320.0
63051.0,154614.0,110824.0,276295.0
63058.0,154621.0,110808.0,276273.0
63061.0,154625.0,110803.0,276286.0
63077.0,154623.0,110837.0,276306.0
63055.0,154603.0,110806.0,276298.0
63061.0,154625.0,110812.0,276302.0
63058.0,154615.0,110823.0,276330.0
63070.0,154627.0,110807.0,276307.0
63059.0,154606.0,110836.0,276328.0
63057.0,154621.0,110817.0,276304.0
63066.0,154632.0,110800.0,276310.0
63066.0,154648.0,110812.0,276308.0
63052.0,154643.0,110802.0,276295.0
63070.0,154662.0,110808.0,276309.0
63078.0,154634.0,110775.0,276323.0
63063.0,154668.0,110793.0,276265.0
63058.0,154651.0,110802.0,276287.0
63092.0,154675.0,110785.0,276301.0
63065.0,154670.0,110787.0,276292.0
63070.0,154653.0,110760.0,276289.0
63075.0,154673.0,110776.0,276240.0
63086.0,154678.0,110792.0,276281.0
63074.0,154670.0,110790.0,276274.0
63074.0,154681.0,110787.0,276303.0
63081.0,154679.0,110779.0,276301.0
63076.0,154689.0,110777.0,276294.0
63088.0,154669.0,110768.0,276308.0
63077.0,154657.0,110778.0,276241.0
63087.0,154653.0,110784.0,276228.0
63071.0,154633.0,110766.0,276235.0
63056.0,154607.0,110772.0,276201.0
63061.0,154581.0,110763.0,276187.0
63058.0,154549.0,110742.0,276171.0
63051.0,154542.0,110747.0,276171.0
63033.0,154516.0,110741.0,276165.0
63023.0,154485.0,110755.0,276146.0
63023.0,154466.0,110741.0,276148.0
63000.0,154404.0,110721.0,276068.0
63004.0,154405.0,110721.0,276131.0
63012.0,154404.0,110728.0,276096.0
62998.0,154374.0,110705.0,276120.0
62990.0,154371.0,110706.0,276121.0
62987.0,154337.0,110713.0,276107.0
62987.0,154318.0,110700.0,276050.0
62968.0,154311.0,110683.0,276063.0
62969.0,154313.0,110690.0,276068.0
62975.0,154273.0,110687.0,276068.0
62976.0,154292.0,110681.0,276073.0
62960.0,154278.0,110674.0,276065.0
62956.0,154289.0,110669.0,276043.0
62963.0,154260.0,110679.0,276064.0
62947.0,154255.0,110664.0,276050.0
62961.0,154248.0,110652.0,276005.0
62962.0,154265.0,110639.0,275979.0
62972.0,154262.0,110620.0,275991.0
62972.0,154228.0,110617.0,275970.0
62941.0,154249.0,110594.0,275964.0
62930.0,154238.0,110599.0,275939.0
62958.0,154241.0,110581.0,275913.0
62966.0,154241.0,110614.0,275930.0
62943.0,154259.0,110584.0,275947.0
62958.0,154227.0,110601.0,275899.0
62947.0,154225.0,110594.0,275897.0
62942.0,154218.0,110590.0,275914.0
62943.0,154218.0,110607.0,275913.0
62947.0,154212.0,110614.0,275947.0
62949.0,154221.0,110616.0,275976.0
62938.0,154224.0,110613.0,275956.0
62949.0,154225.0,110630.0,275960.0
62950.0,154218.0,110636.0,275961.0
62942.0,154223.0,110639.0,275976.0
62960.0,154192.0,110614.0,276012.0
62945.0,154208.0,110626.0,275997.0
62952.0,154244.0,110649.0,276035.0
62942.0,154233.0,110649.0,276021.0
62954.0,154227.0,110652.0,275970.0
62938.0,154216.0,110616.0,276010.0
62952.0,154203.0,110613.0,276043.0
62950.0,154213.0,110617.0,276013.0
62947.0,154225.0,110622.0,276002.0
62946.0,154249.0,110612.0,276004.0
62952.0,154216.0,110627.0,275995.0
62947.0,154244.0,110579.0,275972.0
62953.0,154223.0,110591.0,275991.0
62960.0,154257.0,110570.0,275945.0
62948.0,154260.0,110548.0,275961.0
62960.0,154256.0,110539.0,275915.0
62946.0,154274.0,110564.0,275964.0
62969.0,154287.0,110546.0,275962.0
62977.0,154275.0,110550.0,275960.0
62972.0,154281.0,110544.0,275940.0
62968.0,154269.0,110544.0,275926.0
62959.0,154301.0,110522.0,275945.0
62973.0,154291.0,110502.0,275889.0
62981.0,154296.0,110500.0,275931.0
62987.0,154298.0,110520.0,275881.0
62985.0,154307.0,110494.0,275862.0
62982.0,154298.0,110475.0,275863.0
62991.0,154293.0,110471.0,275830.0
62977.0,154297.0,110476.0,275782.0
62967.0,154283.0,110443.0,275776.0
62978.0,154256.0,110460.0,275741.0
62974.0,154226.0,110434.0,275722.0
62946.0,154215.0,110437.0,275671.0
62929.0,154172.0,110386.0,275649.0
62921.0,154172.0,110392.0,275651.0
62924.0,154131.0,110362.0,275608.0
62911.0,154093.0,110373.0,275597.0
62901.0,154082.0,110341.0,275566.0
62902.0,154064.0,110340.0,275499.0
62893.0,154047.0,110324.0,275474.0
62896.0,154014.0,110311.0,275436.0
62873.0,154027.0,110280.0,275455.0
62883.0,153988.0,110287.0,275426.0
62871.0,153977.0,110262.0,275428.0
62873.0,153974.0,110256.0,275383.0
62886.0,153951.0,110232.0,275359.0
62865.0,153927.0,110251.0,275356.0
62843.0,153934.0,110238.0,275351.0
62857.0,153938.0,110245.0,275343.0
62848.0,153909.0,110224.0,275370.0
62848.0,153901.0,110207.0,275308.0
