63573.0,156987.0,103198.0,264178.0
63584.0,157011.0,103195.0,264183.0
63584.0,156996.0,103192.0,264186.0
63586.0,156994.0,103198.0,264228.0
63579.0,157021.0,103186.0,264203.0
63583.0,157044.0,103190.0,264199.0
63596.0,157041.0,103195.0,264217.0
63603.0,157053.0,103186.0,264232.0
63602.0,157059.0,103181.0,264222.0
63618.0,157092.0,103196.0,264267.0
63605.0,157077.0,103209.0,264249.0
63632.0,157085.0,103205.0,264266.0
63596.0,157131.0,103197.0,264258.0
63608.0,157129.0,103192.0,264267.0
63640.0,157163.0,103205.0,264304.0
63626.0,157160.0,103203.0,264332.0
63650.0,157178.0,103209.0,264379.0
63623.0,157194.0,103210.0,264379.0
63649.0,157208.0,103232.0,264389.0
63653.0,157228.0,103252.0,264441.0
63649.0,157240.0,103292.0,264485.0
63647.0,157235.0,103340.0,264568.0
63652.0,157254.0,103391.0,264718.0
63658.0,157262.0,103455.0,264843.0
63651.0,157277.0,103549.0,264997.0
63665.0,157277.0,103651.0,265180.0
63663.0,157286.0,103743.0,265332.0
63665.0,157279.0,103809.0,265506.0
63651.0,157304.0,103821.0,265551.0
63668.0,157303.0,103847.0,265576.0
63666.0,157302.0,103825.0,265525.0
63651.0,157310.0,103726.0,265405.0
63655.0,157286.0,103534.0,265062.0
63637.0,157256.0,103245.0,264516.0
63623.0,157221.0,102838.0,263805.0
63594.0,157206.0,102451.0,263077.0
63577.0,157170.0,102052.0,262315.0
63551.0,157185.0,101492.0,261286.0
63532.0,157213.0,100876.0,259996.0
63534.0,157260.0,100349.0,258591.0
63530.0,157282.0,99985.0,257521.0
63539.0,157335.0,99775.0,256870.0
63557.0,157408.0,99723.0,256505.0
63568.0,157448.0,99727.0,256253.0
63581.0,157512.0,99714.0,256005.0
63603.0,157501.0,99672.0,255721.0
63580.0,157506.0,99741.0,255705.0
63558.0,157433.0,99864.0,255752.0
63533.0,157352.0,99971.0,255859.0
63508.0,157298.0,100071.0,255868.0
63506.0,157275.0,100180.0,256012.0
63486.0,157261.0,100300.0,256180.0
63472.0,157235.0,100485.0,256377.0
63461.0,157169.0,100607.0,256622.0
63416.0,157100.0,100731.0,256771.0
63413.0,157056.0,100841.0,257024.0
63373.0,156999.0,101023.0,257275.0
63379.0,156967.0,101231.0,257657.0
63357.0,156972.0,101448.0,258109.0
63342.0,156933.0,101661.0,258548.0
63357.0,156914.0,101869.0,258955.0
63336.0,156908.0,102028.0,259329.0
63331.0,156943.0,102223.0,259714.0
63370.0,156971.0,102438.0,260161.0
63368.0,156988.0,102604.0,260540.0
63394.0,157049.0,102756.0,260842.0
63410.0,157094.0,102846.0,261051.0
63407.0,157095.0,102876.0,261132.0
63414.0,157109.0,102907.0,261225.0
63419.0,157129.0,102953.0,261286.0
63427.0,157126.0,102955.0,261277.0
63429.0,157140.0,102931.0,261212.0
63422.0,157128.0,102874.0,261167.0
63420.0,157100.0,102863.0,261151.0
63434.0,157094.0,102883.0,261194.0
63429.0,157122.0,102920.0,261236.0
63449.0,157148.0,102911.0,261231.0
63448.0,157187.0,102948.0,261341.0
63459.0,157194.0,102969.0,261372.0
63496.0,157216.0,102992.0,261428.0
63476.0,157253.0,103000.0,261479.0
63501.0,157280.0,103006.0,261514.0
63508.0,157310.0,103016.0,261521.0
63508.0,157319.0,103002.0,261528.0
63509.0,157368.0,103022.0,261566.0
63511.0,157409.0,103045.0,261593.0
63534.0,157420.0,103042.0,261602.0
63536.0,157454.0,103042.0,261605.0
63533.0,157456.0,103022.0,261616.0
63526.0,157431.0,103010.0,261546.0
63528.0,157424.0,102973.0,261487.0
63511.0,157400.0,102947.0,261439.0
63506.0,157386.0,102924.0,261434.0
63501.0,157389.0,102913.0,261398.0
63500.0,157365.0,102922.0,261418.0
63498.0,157369.0,102921.0,261425.0
63505.0,157361.0,102887.0,261347.0
63472.0,157360.0,102865.0,261324.0
63498.0,157339.0,102806.0,261243.0
63479.0,157320.0,102789.0,261183.0
63477.0,157333.0,102744.0,261109.0
63472.0,157309.0,102687.0,260948.0
63463.0,157282.0,102612.0,260827.0
63448.0,157267.0,102562.0,260779.0
63445.0,157232.0,102501.0,260629.0
63407.0,157194.0,102461.0,260496.0
63414.0,157155.0,102387.0,260389.0
63408.0,157153.0,102318.0,260286.0
63392.0,157103.0,102276.0,260148.0
63379.0,157079.0,102253.0,260110.0
63369.0,157050.0,102224.0,260053.0
63360.0,157016.0,102193.0,259994.0
63356.0,156993.0,102172.0,259979.0
63322.0,156927.0,102184.0,259948.0
63325.0,156957.0,102180.0,259938.0
63309.0,156945.0,102179.0,259971.0
63325.0,156942.0,102176.0,259993.0
63294.0,156921.0,102197.0,259990.0
63315.0,156918.0,102196.0,259920.0
63300.0,156885.0,102167.0,259937.0
63300.0,156867.0,102153.0,259867.0
63310.0,156816.0,102150.0,259784.0
63289.0,156768.0,102123.0,259773.0
63250.0,156735.0,102079.0,259695.0
63249.0,156683.0,102064.0,259639.0
63235.0,156653.0,102075.0,259651.0
63210.0,156616.0,102080.0,259664.0
63202.0,156570.0,102080.0,259691.0
63178.0,156547.0,102102.0,259656.0
63179.0,156517.0,102112.0,259637.0
63149.0,156466.0,102037.0,259584.0
63142.0,156449.0,102045.0,259609.0
63137.0,156420.0,102042.0,259597.0
63118.0,156390.0,102037.0,259551.0
63111.0,156368.0,102016.0,259518.0
63110.0,156322.0,102018.0,259470.0
63089.0,156290.0,101990.0,259439.0
63080.0,156282.0,101992.0,259389.0
63059.0,156245.0,101972.0,259393.0
63063.0,156191.0,101964.0,259371.0
63040.0,156193.0,101958.0,259340.0
63034.0,156162.0,101934.0,259300.0
63022.0,156151.0,101911.0,259282.0
63014.0,156123.0,101901.0,259236.0
63015.0,156114.0,101899.0,259229.0
63009.0,156073.0,101904.0,259218.0
62978.0,156013.0,101878.0,259112.0
62986.0,156034.0,101844.0,259073.0
62970.0,156012.0,101807.0,259034.0
62958.0,155976.0,101792.0,258946.0
62930.0,155987.0,101758.0,258899.0
62941.0,155935.0,101751.0,258877.0
62946.0,155921.0,101732.0,258907.0
62921.0,155903.0,101726.0,258861.0
62916.0,155884.0,101736.0,258812.0
62908.0,155868.0,101711.0,258763.0
62905.0,155867.0,101703.0,258715.0
62894.0,155842.0,101668.0,258656.0
62892.0,155847.0,101654.0,258650.0
62875.0,155823.0,101620.0,258579.0
62876.0,155794.0,101619.0,258539.0
62882.0,155796.0,101603.0,258486.0
62864.0,155754.0,101602.0,258467.0
62841.0,155747.0,101536.0,258408.0
62859.0,155744.0,101533.0,258363.0
62847.0,155744.0,101488.0,258321.0
62850.0,155745.0,101446.0,258214.0
62837.0,155728.0,101437.0,258178.0
62834.0,155729.0,101405.0,258102.0
62841.0,155704.0,101386.0,258062.0
62825.0,155693.0,101383.0,258025.0
62822.0,155694.0,101350.0,258008.0
62823.0,155662.0,101321.0,257979.0
62809.0,155682.0,101332.0,257930.0
62815.0,155669.0,101295.0,257877.0
62808.0,155643.0,101286.0,257852.0
62805.0,155645.0,101271.0,257822.0
62798.0,155638.0,101268.0,257840.0
62784.0,155596.0,101254.0,257826.0
62801.0,155602.0,101243.0,257777.0
62769.0,155562.0,101213.0,257742.0
62792.0,155578.0,101208.0,257690.0
62783.0,155570.0,101206.0,257634.0
62769.0,155571.0,101174.0,257583.0
62784.0,155542.0,101145.0,257549.0
62766.0,155521.0,101126.0,257506.0
62764.0,155515.0,101105.0,257418.0
62757.0,155505.0,101094.0,257421.0
62760.0,155504.0,101098.0,257417.0
62755.0,155490.0,101075.0,257406.0
62759.0,155466.0,101079.0,257385.0
62745.0,155470.0,101085.0,257347.0
62747.0,155478.0,101054.0,257367.0
62759.0,155466.0,101073.0,257334.0
62734.0,155452.0,101055.0,257348.0
62740.0,155432.0,101065.0,257309.0
62732.0,155434.0,101043.0,257268.0
62706.0,155427.0,101046.0,257241.0
62737.0,155442.0,101038.0,257230.0
62729.0,155427.0,101044.0,257267.0
62729.0,155426.0,101055.0,257229.0
62740.0,155423.0,101040.0,257232.0
62730.0,155414.0,100999.0,257197.0
62714.0,155401.0,101018.0,257180.0
62726.0,155368.0,100989.0,257135.0
62695.0,155341.0,100999.0,257119.0
62698.0,155321.0,100982.0,257063.0
62682.0,155290.0,100960.0,257037.0
62671.0,155237.0,100939.0,256999.0
62671.0,155217.0,100930.0,256923.0
62658.0,155195.0,100920.0,256903.0
62641.0,155136.0,100920.0,256894.0
62622.0,155098.0,100899.0,256846.0
62609.0,155081.0,100891.0,256837.0
62611.0,155045.0,100858.0,256750.0
62585.0,155009.0,100849.0,256729.0
62584.0,155001.0,100830.0,256702.0
62579.0,154960.0,100816.0,256673.0
62566.0,154930.0,100814.0,256632.0
62544.0,154907.0,100792.0,256652.0
62552.0,154874.0,100789.0,256643.0
62543.0,154856.0,100797.0,256591.0
62514.0,154821.0,100780.0,256561.0
62525.0,154797.0,100762.0,256525.0
62504.0,154763.0,100754.0,256504.0
62501.0,154779.0,100744.0,256479.0
62492.0,154726.0,100748.0,256482.0
62482.0,154723.0,100723.0,256411.0
62476.0,154697.0,100750.0,256425.0
62464.0,154662.0,100746.0,256471.0
62476.0,154660.0,100756.0,256467.0
62460.0,154634.0,100757.0,256434.0
62444.0,154609.0,100812.0,256454.0
62452.0,154584.0,100790.0,256485.0
62446.0,154569.0,100771.0,256557.0
62432.0,154537.0,100822.0,256562.0
62421.0,154515.0,100858.0,256575.0
62426.0,154488.0,100863.0,256603.0
62405.0,154465.0,100867.0,256622.0
62409.0,154466.0,100884.0,256627.0
62406.0,154479.0,100882.0,256654.0
62391.0,154436.0,100880.0,256680.0
62403.0,154436.0,100865.0,256626.0
62392.0,154426.0,100862.0,256605.0
62395.0,154410.0,100857.0,256580.0
62381.0,154380.0,100839.0,256507.0
62387.0,154373.0,100829.0,256498.0
62374.0,154368.0,100794.0,256447.0
62356.0,154364.0,100725.0,256411.0
62372.0,154341.0,100745.0,256333.0
62370.0,154357.0,100726.0,256291.0
62366.0,154339.0,100702.0,256265.0
62357.0,154349.0,100687.0,256258.0
62366.0,154300.0,100701.0,256246.0
62359.0,154283.0,100704.0,256256.0
62349.0,154262.0,100696.0,256275.0
62341.0,154275.0,100698.0,256250.0
62340.0,154265.0,100700.0,256275.0
62337.0,154228.0,100686.0,256266.0
62338.0,154212.0,100686.0,256273.0
62332.0,154220.0,100679.0,256261.0
62310.0,154194.0,100690.0,256263.0
62322.0,154181.0,100698.0,256227.0
62310.0,154184.0,100688.0,256252.0
62316.0,154171.0,100706.0,256223.0
62318.0,154148.0,100676.0,256249.0
62299.0,154141.0,100685.0,256293.0
62299.0,154145.0,100685.0,256278.0
62295.0,154136.0,100687.0,256249.0
62293.0,154132.0,100673.0,256215.0
62302.0,154125.0,100655.0,256198.0
62293.0,154113.0,100633.0,256184.0
62300.0,154101.0,100621.0,256178.0
62292.0,154107.0,100616.0,256120.0
62280.0,154107.0,100612.0,256121.0
62273.0,154087.0,100595.0,256115.0
62281.0,154086.0,100568.0,256098.0
62288.0,154081.0,100571.0,256054.0
62290.0,154069.0,100559.0,256022.0
62278.0,154050.0,100555.0,256086.0
62271.0,154056.0,100562.0,256081.0
62261.0,154044.0,100578.0,256093.0
62276.0,154046.0,100638.0,256151.0
62257.0,154039.0,100687.0,256231.0
62268.0,154000.0,100747.0,256346.0
62245.0,153989.0,100813.0,256520.0
62249.0,153989.0,100905.0,256633.0
62241.0,153944.0,100983.0,256741.0
62244.0,153939.0,101030.0,256869.0
62240.0,153904.0,101058.0,256980.0
62229.0,153871.0,101098.0,257074.0
62213.0,153863.0,101137.0,257142.0
62213.0,153787.0,101191.0,257225.0
62194.0,153742.0,101175.0,257268.0
62184.0,153702.0,101190.0,257324.0
62163.0,153667.0,101202.0,257330.0
62151.0,153603.0,101222.0,257299.0
62129.0,153554.0,101196.0,257338.0
62131.0,153538.0,101177.0,257323.0
62083.0,153489.0,101171.0,257313.0
62097.0,153451.0,101187.0,257350.0
62084.0,153409.0,101180.0,257348.0
62072.0,153400.0,101147.0,257337.0
62077.0,153379.0,101150.0,257256.0
62068.0,153322.0,101136.0,257287.0
62064.0,153320.0,101101.0,257261.0
62059.0,153291.0,101059.0,257191.0
62059.0,153287.0,101036.0,257196.0
62053.0,153240.0,101026.0,257154.0
62045.0,153246.0,101006.0,257124.0
62015.0,153230.0,100997.0,257059.0
62028.0,153209.0,100978.0,257047.0
62007.0,153214.0,100929.0,256999.0
62014.0,153174.0,100899.0,256989.0
62017.0,153193.0,100873.0,256906.0
62002.0,153179.0,100856.0,256860.0
62015.0,153185.0,100839.0,256824.0
62016.0,153148.0,100828.0,256763.0
61996.0,153158.0,100796.0,256752.0
62000.0,153129.0,100776.0,256692.0
61988.0,153125.0,100747.0,256658.0
61989.0,153110.0,100699.0,256606.0
61991.0,153099.0,100671.0,256526.0
61980.0,153097.0,100605.0,256427.0
61980.0,153072.0,100586.0,256385.0
61968.0,153067.0,100540.0,256355.0
61975.0,153062.0,100512.0,256295.0
61962.0,153053.0,100471.0,256253.0
61977.0,153031.0,100476.0,256244.0
61957.0,153019.0,100437.0,256194.0
61949.0,153022.0,100440.0,256187.0
61958.0,153011.0,100437.0,256163.0
61952.0,153018.0,100447.0,256205.0
61964.0,152922.0,100438.0,256159.0
61935.0,152992.0,100409.0,256200.0
61938.0,152990.0,100416.0,256152.0
61933.0,152997.0,100399.0,256143.0
61940.0,152958.0,100408.0,256124.0
61915.0,152949.0,100389.0,256111.0
61940.0,152956.0,100403.0,256079.0
61933.0,152918.0,100391.0,256112.0
61918.0,152915.0,100401.0,256075.0
61915.0,152933.0,100383.0,256090.0
61908.0,152941.0,100388.0,256084.0
61916.0,152907.0,100397.0,256060.0
61947.0,152921.0,100393.0,256037.0
61915.0,152895.0,100386.0,256053.0
61911.0,152898.0,100391.0,256069.0
61917.0,152887.0,100407.0,256068.0
61910.0,152888.0,100414.0,256027.0
61921.0,152870.0,100403.0,256073.0
61911.0,152877.0,100420.0,256071.0
61909.0,152892.0,100429.0,256081.0
61917.0,152875.0,100439.0,256028.0
61918.0,152858.0,100439.0,256049.0
61910.0,152873.0,100402.0,256026.0
61917.0,152860.0,100415.0,256034.0
61906.0,152870.0,100411.0,255994.0
61906.0,152852.0,100402.0,256007.0
61900.0,152867.0,100391.0,256032.0
61903.0,152870.0,100370.0,255993.0
61904.0,152858.0,100361.0,255992.0
61906.0,152858.0,100352.0,255944.0
61910.0,152868.0,100348.0,255945.0
61911.0,152863.0,100320.0,255937.0
61920.0,152869.0,100306.0,255911.0
61911.0,152865.0,100287.0,255929.0
61905.0,152850.0,100305.0,255983.0
61906.0,152865.0,100315.0,255970.0
61895.0,152831.0,100339.0,256066.0
61913.0,152837.0,100377.0,256097.0
61911.0,152867.0,100394.0,256200.0
61918.0,152850.0,100442.0,256262.0
61913.0,152844.0,100469.0,256353.0
61909.0,152851.0,100531.0,256400.0
61922.0,152856.0,100540.0,256487.0
61900.0,152827.0,100560.0,256436.0
61922.0,152811.0,100565.0,256449.0
61910.0,152796.0,100565.0,256440.0
61915.0,152774.0,100583.0,256406.0
61893.0,152729.0,100576.0,256414.0
61900.0,152726.0,100567.0,256406.0
61865.0,152689.0,100547.0,256356.0
61877.0,152632.0,100568.0,256356.0
61843.0,152597.0,100513.0,256305.0
61842.0,152609.0,100520.0,256297.0
61836.0,152581.0,100498.0,256264.0
61821.0,152541.0,100467.0,256156.0
61815.0,152499.0,100448.0,256134.0
61805.0,152484.0,100460.0,256105.0
61813.0,152458.0,100424.0,256145.0
61807.0,152455.0,100436.0,256028.0
61795.0,152442.0,100413.0,256048.0
61791.0,152447.0,100398.0,256022.0
61777.0,152405.0,100378.0,256036.0
61788.0,152391.0,100386.0,255983.0
61788.0,152385.0,100352.0,255962.0
61798.0,152384.0,100370.0,255923.0
61773.0,152404.0,100346.0,255948.0
61776.0,152353.0,100312.0,255924.0
61783.0,152387.0,100302.0,255887.0
61777.0,152373.0,100290.0,255878.0
61787.0,152345.0,100268.0,255800.0
61766.0,152349.0,100259.0,255862.0
61777.0,152340.0,100266.0,255829.0
61770.0,152343.0,100261.0,255818.0
61779.0,152311.0,100257.0,255827.0
61761.0,152313.0,100239.0,255830.0
61759.0,152306.0,100223.0,255824.0
61757.0,152316.0,100223.0,255790.0
61759.0,152274.0,100244.0,255786.0
61756.0,152294.0,100221.0,255804.0
61752.0,152291.0,100201.0,255784.0
61752.0,152252.0,100211.0,255770.0
61764.0,152240.0,100208.0,255801.0
61745.0,152245.0,100227.0,255809.0
61735.0,152209.0,100224.0,255785.0
61751.0,152203.0,100221.0,255797.0
61761.0,152202.0,100248.0,255871.0
61737.0,152220.0,100275.0,255940.0
61738.0,152223.0,100283.0,255955.0
61727.0,152198.0,100297.0,255997.0
61752.0,152188.0,100339.0,256030.0
61738.0,152226.0,100356.0,256106.0
61734.0,152196.0,100401.0,256196.0
61745.0,152199.0,100422.0,256225.0
61746.0,152199.0,100441.0,256346.0
61758.0,152187.0,100468.0,256394.0
61757.0,152188.0,100470.0,256433.0
61756.0,152188.0,100523.0,256470.0
61751.0,152187.0,100533.0,256486.0
61772.0,152177.0,100518.0,256497.0
61755.0,152211.0,100517.0,256485.0
61768.0,152176.0,100517.0,256512.0
61763.0,152157.0,100456.0,256450.0
61752.0,152177.0,100476.0,256477.0
61758.0,152212.0,100473.0,256446.0
61767.0,152173.0,100457.0,256403.0
61763.0,152170.0,100453.0,256417.0
61761.0,152181.0,100443.0,256399.0
61765.0,152160.0,100401.0,256355.0
61757.0,152168.0,100394.0,256360.0
61756.0,152171.0,100376.0,256345.0
61777.0,152173.0,100382.0,256320.0
61762.0,152173.0,100383.0,256335.0
61763.0,152168.0,100339.0,256289.0
61769.0,152167.0,100307.0,256256.0
61772.0,152170.0,100323.0,256255.0
61762.0,152146.0,100309.0,256224.0
61759.0,152169.0,100291.0,256239.0
61769.0,152191.0,100292.0,256238.0
61759.0,152151.0,100306.0,256200.0
61765.0,152136.0,100290.0,256234.0
61770.0,152176.0,100289.0,256213.0
61758.0,152171.0,100285.0,256200.0
61762.0,152138.0,100278.0,256186.0
61787.0,152159.0,100263.0,256146.0
61769.0,152150.0,100255.0,256117.0
61757.0,152151.0,100242.0,256128.0
61771.0,152153.0,100263.0,256120.0
61759.0,152151.0,100257.0,256127.0
61768.0,152127.0,100243.0,256091.0
61772.0,152113.0,100246.0,256054.0
61760.0,152080.0,100246.0,256033.0
61760.0,152084.0,100252.0,256073.0
61742.0,152035.0,100265.0,256048.0
61744.0,152021.0,100264.0,256055.0
61720.0,152010.0,100265.0,256095.0
61716.0,151969.0,100258.0,256059.0
61726.0,151945.0,100298.0,256077.0
61715.0,151935.0,100302.0,256074.0
61703.0,151920.0,100302.0,256110.0
61721.0,151920.0,100303.0,256099.0
61693.0,151894.0,100302.0,256117.0
61691.0,151886.0,100321.0,256091.0
61701.0,151874.0,100312.0,256084.0
61691.0,151867.0,100326.0,256102.0
61690.0,151839.0,100290.0,256109.0
61688.0,151838.0,100293.0,256130.0
61689.0,151845.0,100303.0,256072.0
61694.0,151842.0,100291.0,256066.0
61692.0,151840.0,100294.0,256046.0
61672.0,151806.0,100299.0,256075.0
61681.0,151837.0,100292.0,256007.0
61677.0,151815.0,100270.0,255986.0
61703.0,151812.0,100262.0,255970.0
61686.0,151781.0,100269.0,256011.0
61664.0,151806.0,100268.0,256037.0
61690.0,151800.0,100279.0,255999.0
61666.0,151757.0,100278.0,255992.0
61683.0,151762.0,100269.0,255963.0
61663.0,151761.0,100272.0,255960.0
61648.0,151750.0,100277.0,255970.0
61659.0,151748.0,100283.0,256012.0
61658.0,151715.0,100276.0,255974.0
61659.0,151708.0,100290.0,255970.0
61653.0,151725.0,100267.0,255951.0
61660.0,151690.0,100288.0,255944.0
61650.0,151684.0,100265.0,255949.0
61644.0,151688.0,100272.0,255925.0
61656.0,151689.0,100255.0,255892.0
61649.0,151671.0,100253.0,255887.0
61655.0,151647.0,100212.0,255908.0
61634.0,151635.0,100226.0,255881.0
