347673.0,472183.0,203634.0,312694.0
347627.0,472150.0,203629.0,312708.0
347649.0,472217.0,203662.0,312689.0
347614.0,472157.0,203623.0,312718.0
347633.0,472168.0,203642.0,312693.0
347612.0,472147.0,203619.0,312715.0
347582.0,472177.0,203626.0,312767.0
347614.0,472162.0,203637.0,312727.0
347591.0,472216.0,203636.0,312721.0
347579.0,472163.0,203624.0,312810.0
347638.0,472133.0,203620.0,312726.0
347590.0,472144.0,203588.0,312699.0
347582.0,472178.0,203599.0,312691.0
347582.0,472181.0,203591.0,312719.0
347542.0,472140.0,203581.0,312730.0
347605.0,472162.0,203577.0,312690.0
347590.0,472150.0,203585.0,312695.0
347606.0,472180.0,203574.0,312718.0
347631.0,472210.0,203608.0,312724.0
347632.0,472185.0,203591.0,312735.0
347624.0,472234.0,203567.0,312715.0
347633.0,472160.0,203597.0,312741.0
347619.0,472200.0,203579.0,312760.0
347628.0,472235.0,203613.0,312755.0
347602.0,472230.0,203581.0,312735.0
347618.0,472179.0,203596.0,312792.0
347569.0,472144.0,203588.0,312728.0
347553.0,472112.0,203621.0,312721.0
347506.0,472039.0,203628.0,312738.0
347477.0,471980.0,203633.0,312712.0
347375.0,471908.0,203644.0,312753.0
347305.0,471862.0,203648.0,312765.0
347244.0,471775.0,203653.0,312749.0
347225.0,471771.0,203666.0,312712.0
347129.0,471674.0,203672.0,312751.0
347123.0,471584.0,203661.0,312727.0
347070.0,471625.0,203670.0,312740.0
347054.0,471582.0,203663.0,312751.0
347010.0,471535.0,203680.0,312729.0
346962.0,471542.0,203704.0,312784.0
346980.0,471534.0,203700.0,312757.0
346939.0,471481.0,203687.0,312765.0
346929.0,471474.0,203708.0,312800.0
346902.0,471430.0,203700.0,312778.0
346874.0,471443.0,203689.0,312784.0
346852.0,471393.0,203729.0,312768.0
346782.0,471381.0,203686.0,312784.0
346794.0,471427.0,203701.0,312770.0
346723.0,471425.0,203717.0,312812.0
346746.0,471357.0,203672.0,312792.0
346750.0,471375.0,203700.0,312740.0
346733.0,471338.0,203670.0,312794.0
346703.0,471305.0,203663.0,312794.0
346665.0,471298.0,203674.0,312772.0
346646.0,471260.0,203663.0,312806.0
346668.0,471347.0,203661.0,312790.0
346637.0,471289.0,203631.0,312753.0
346598.0,471259.0,203634.0,312783.0
346565.0,471217.0,203623.0,312719.0
346577.0,471201.0,203608.0,312750.0
346585.0,471202.0,203616.0,312729.0
346556.0,471186.0,203605.0,312759.0
346514.0,471127.0,203578.0,312762.0
346498.0,471167.0,203585.0,312709.0
346491.0,471138.0,203535.0,312665.0
346447.0,471106.0,203554.0,312679.0
346465.0,471107.0,203558.0,312678.0
346402.0,471085.0,203507.0,312727.0
346426.0,471108.0,203523.0,312695.0
346402.0,471072.0,203518.0,312665.0
346403.0,471098.0,203505.0,312673.0
346346.0,471030.0,203479.0,312678.0
346372.0,471000.0,203484.0,312699.0
346377.0,471070.0,203453.0,312686.0
346366.0,471013.0,203468.0,312671.0
346364.0,471015.0,203448.0,312664.0
346326.0,471023.0,203447.0,312638.0
346347.0,470998.0,203419.0,312697.0
346297.0,470979.0,203413.0,312671.0
346316.0,470978.0,203453.0,312700.0
346333.0,471045.0,203424.0,312667.0
346309.0,470990.0,203448.0,312689.0
346294.0,471011.0,203482.0,312663.0
346289.0,471033.0,203438.0,312661.0
346304.0,471033.0,203470.0,312681.0
346328.0,471031.0,203497.0,312660.0
346315.0,471042.0,203442.0,312699.0
346285.0,471030.0,203449.0,312664.0
346249.0,471036.0,203466.0,312684.0
346309.0,471023.0,203476.0,312637.0
346290.0,471009.0,203459.0,312666.0
346297.0,471047.0,203467.0,312692.0
346272.0,471043.0,203516.0,312675.0
346293.0,471023.0,203509.0,312686.0
346285.0,471062.0,203523.0,312730.0
346305.0,471111.0,203527.0,312709.0
346341.0,471092.0,203511.0,312702.0
346295.0,471111.0,203530.0,312693.0
346336.0,471146.0,203541.0,312748.0
346314.0,471177.0,203535.0,312728.0
346353.0,471184.0,203550.0,312801.0
346354.0,471208.0,203536.0,312745.0
346295.0,471199.0,203548.0,312769.0
346368.0,471181.0,203546.0,312784.0
346384.0,471185.0,203578.0,312797.0
346359.0,471188.0,203578.0,312789.0
346320.0,471187.0,203622.0,312742.0
346334.0,471201.0,203590.0,312753.0
346240.0,471144.0,203597.0,312722.0
346195.0,471061.0,203581.0,312745.0
346157.0,471020.0,203613.0,312755.0
346120.0,470981.0,203620.0,312725.0
346072.0,470840.0,203648.0,312729.0
345994.0,470845.0,203642.0,312722.0
345958.0,470803.0,203650.0,312743.0
345962.0,470794.0,203695.0,312749.0
345911.0,470778.0,203621.0,312736.0
345899.0,470767.0,203675.0,312736.0
345834.0,470795.0,203659.0,312789.0
345842.0,470727.0,203683.0,312774.0
345852.0,470698.0,203675.0,312764.0
345845.0,470651.0,203669.0,312765.0
345881.0,470713.0,203679.0,312799.0
345804.0,470701.0,203712.0,312792.0
345849.0,470688.0,203712.0,312761.0
345817.0,470680.0,203694.0,312776.0
345804.0,470724.0,203693.0,312761.0
345774.0,470692.0,203722.0,312804.0
345781.0,470710.0,203700.0,312804.0
345816.0,470711.0,203703.0,312776.0
345792.0,470664.0,203713.0,312787.0
345778.0,470679.0,203727.0,312761.0
345795.0,470662.0,203736.0,312741.0
345782.0,470680.0,203714.0,312767.0
345795.0,470676.0,203708.0,312812.0
345745.0,470636.0,203698.0,312745.0
345724.0,470708.0,203699.0,312757.0
345738.0,470654.0,203713.0,312736.0
345741.0,470647.0,203693.0,312743.0
345693.0,470570.0,203706.0,312738.0
345678.0,470655.0,203709.0,312768.0
345682.0,470618.0,203719.0,312733.0
345678.0,470619.0,203701.0,312762.0
345691.0,470596.0,203705.0,312744.0
345700.0,470579.0,203716.0,312777.0
345648.0,470633.0,203690.0,312727.0
345670.0,470597.0,203685.0,312727.0
345672.0,470624.0,203706.0,312721.0
345686.0,470639.0,203694.0,312724.0
345666.0,470631.0,203694.0,312723.0
345708.0,470590.0,203699.0,312771.0
345703.0,470651.0,203692.0,312726.0
345722.0,470627.0,203722.0,312749.0
345697.0,470660.0,203710.0,312744.0
345751.0,470672.0,203723.0,312753.0
345765.0,470658.0,203716.0,312720.0
345722.0,470715.0,203711.0,312721.0
345731.0,470700.0,203736.0,312708.0
345711.0,470696.0,203709.0,312750.0
345740.0,470723.0,203727.0,312663.0
345730.0,470728.0,203703.0,312732.0
345712.0,470712.0,203728.0,312712.0
345748.0,470738.0,203711.0,312680.0
345764.0,470753.0,203737.0,312702.0
345774.0,470785.0,203729.0,312662.0
345771.0,470793.0,203742.0,312723.0
345814.0,470818.0,203748.0,312682.0
345794.0,470829.0,203743.0,312716.0
345750.0,470837.0,203736.0,312694.0
345810.0,470846.0,203737.0,312709.0
345770.0,470857.0,203736.0,312714.0
345815.0,470827.0,203775.0,312690.0
345806.0,470887.0,203775.0,312727.0
345868.0,470884.0,203775.0,312702.0
345850.0,470897.0,203764.0,312710.0
345868.0,470950.0,203744.0,312678.0
345849.0,470931.0,203774.0,312698.0
345895.0,470970.0,203796.0,312748.0
345899.0,470963.0,203782.0,312716.0
345926.0,470972.0,203804.0,312765.0
345907.0,471070.0,203807.0,312739.0
345922.0,471041.0,203790.0,312753.0
345900.0,471085.0,203802.0,312734.0
345921.0,471051.0,203792.0,312771.0
345996.0,471133.0,203808.0,312739.0
345988.0,471111.0,203812.0,312787.0
345994.0,471121.0,203842.0,312783.0
345947.0,471099.0,203908.0,312744.0
345962.0,471105.0,203874.0,312746.0
345921.0,471090.0,203879.0,312748.0
345863.0,471037.0,203903.0,312722.0
345875.0,470983.0,203899.0,312746.0
345833.0,470996.0,203903.0,312735.0
345800.0,470948.0,203937.0,312733.0
345783.0,470897.0,203928.0,312785.0
345730.0,470916.0,203945.0,312738.0
345725.0,470881.0,203944.0,312759.0
345718.0,470903.0,203962.0,312814.0
345758.0,470853.0,203978.0,312792.0
345709.0,470901.0,204011.0,312829.0
345656.0,470854.0,204012.0,312855.0
345684.0,470873.0,204052.0,312825.0
345683.0,470811.0,204079.0,312845.0
345722.0,470840.0,204073.0,312849.0
345652.0,470865.0,204071.0,312854.0
345691.0,470856.0,204087.0,312842.0
345631.0,470908.0,204078.0,312850.0
345684.0,470888.0,204109.0,312853.0
345654.0,470941.0,204134.0,312838.0
345658.0,470932.0,204147.0,312834.0
345659.0,470969.0,204147.0,312893.0
345697.0,470935.0,204169.0,312888.0
345718.0,470970.0,204157.0,312867.0
345704.0,470988.0,204185.0,312881.0
345715.0,470980.0,204171.0,312882.0
345718.0,470993.0,204205.0,312878.0
345734.0,471042.0,204186.0,312949.0
345710.0,471050.0,204181.0,312903.0
345729.0,471004.0,204214.0,312877.0
345696.0,471014.0,204184.0,312913.0
345732.0,471055.0,204215.0,312898.0
345728.0,471055.0,204222.0,312908.0
345769.0,471101.0,204225.0,312904.0
345731.0,471071.0,204203.0,312899.0
345751.0,471050.0,204196.0,312875.0
345760.0,471114.0,204186.0,312936.0
345748.0,471153.0,204204.0,312943.0
345789.0,471113.0,204226.0,312930.0
345766.0,471152.0,204201.0,312931.0
345769.0,471180.0,204169.0,312925.0
345772.0,471144.0,204189.0,312837.0
345789.0,471229.0,204163.0,312906.0
345794.0,471166.0,204177.0,312881.0
345817.0,471264.0,204205.0,312900.0
345871.0,471261.0,204191.0,312843.0
345825.0,471250.0,204195.0,312925.0
345809.0,471293.0,204203.0,312886.0
345820.0,471303.0,204190.0,312885.0
345858.0,471306.0,204208.0,312910.0
345855.0,471305.0,204200.0,312912.0
345867.0,471291.0,204200.0,312904.0
345889.0,471356.0,204191.0,312914.0
345928.0,471347.0,204208.0,312893.0
345916.0,471398.0,204233.0,312890.0
345920.0,471387.0,204200.0,312859.0
345924.0,471458.0,204222.0,312885.0
345941.0,471435.0,204224.0,312883.0
345965.0,471389.0,204259.0,312921.0
345949.0,471525.0,204255.0,312887.0
345945.0,471489.0,204220.0,312908.0
345938.0,471488.0,204233.0,312902.0
345968.0,471529.0,204249.0,312894.0
346011.0,471519.0,204259.0,312930.0
346022.0,471589.0,204276.0,312906.0
346053.0,471561.0,204279.0,312939.0
346059.0,471572.0,204280.0,312982.0
346055.0,471663.0,204265.0,312927.0
346059.0,471639.0,204296.0,312963.0
346088.0,471686.0,204259.0,312952.0
346089.0,471681.0,204270.0,312967.0
346141.0,471744.0,204255.0,313005.0
346152.0,471724.0,204299.0,312983.0
346209.0,471759.0,204272.0,313009.0
346154.0,471781.0,204251.0,312988.0
346173.0,471757.0,204283.0,312968.0
346167.0,471726.0,204304.0,312950.0
346131.0,471760.0,204292.0,312957.0
346139.0,471697.0,204310.0,312886.0
346112.0,471667.0,204305.0,312947.0
346101.0,471658.0,204287.0,312919.0
346094.0,471637.0,204295.0,312916.0
346034.0,471624.0,204313.0,312913.0
345993.0,471597.0,204315.0,312927.0
346021.0,471574.0,204298.0,312937.0
345971.0,471563.0,204334.0,312951.0
345972.0,471550.0,204301.0,312940.0
345971.0,471540.0,204333.0,312945.0
345911.0,471566.0,204331.0,312944.0
345910.0,471533.0,204332.0,312908.0
345924.0,471516.0,204298.0,312949.0
345961.0,471475.0,204306.0,312940.0
345941.0,471473.0,204282.0,312914.0
345973.0,471511.0,204308.0,312913.0
345922.0,471446.0,204314.0,312922.0
345928.0,471499.0,204301.0,312953.0
345957.0,471494.0,204314.0,312922.0
345960.0,471510.0,204299.0,312962.0
345930.0,471509.0,204305.0,312958.0
345998.0,471489.0,204278.0,312941.0
345937.0,471559.0,204311.0,312940.0
345941.0,471518.0,204330.0,312928.0
345964.0,471486.0,204303.0,312947.0
345964.0,471494.0,204299.0,312961.0
345915.0,471493.0,204273.0,312927.0
345923.0,471510.0,204286.0,312955.0
345888.0,471547.0,204276.0,312949.0
345950.0,471440.0,204247.0,312941.0
345956.0,471480.0,204280.0,312947.0
345910.0,471498.0,204260.0,312911.0
345950.0,471500.0,204251.0,312916.0
345956.0,471491.0,204259.0,312943.0
345938.0,471504.0,204246.0,312920.0
345949.0,471496.0,204279.0,312953.0
345960.0,471521.0,204261.0,312919.0
345909.0,471524.0,204293.0,312929.0
345960.0,471474.0,204248.0,312916.0
345962.0,471546.0,204252.0,312912.0
345940.0,471559.0,204258.0,312898.0
345940.0,471564.0,204263.0,312946.0
345947.0,471558.0,204266.0,312892.0
346000.0,471586.0,204253.0,312967.0
346002.0,471579.0,204299.0,312946.0
345971.0,471573.0,204288.0,312918.0
345987.0,471571.0,204252.0,312905.0
346016.0,471631.0,204263.0,312943.0
346024.0,471613.0,204278.0,312936.0
345989.0,471637.0,204290.0,312959.0
346027.0,471638.0,204287.0,312955.0
346056.0,471648.0,204279.0,312917.0
346048.0,471695.0,204258.0,312926.0
346093.0,471618.0,204278.0,312929.0
346113.0,471682.0,204301.0,312934.0
346098.0,471742.0,204247.0,312938.0
346123.0,471742.0,204273.0,312934.0
346149.0,471741.0,204243.0,312972.0
346092.0,471777.0,204264.0,312967.0
346155.0,471754.0,204257.0,312961.0
346142.0,471782.0,204271.0,312952.0
346188.0,471822.0,204264.0,312939.0
346152.0,471807.0,204230.0,312962.0
346208.0,471825.0,204262.0,312948.0
346208.0,471858.0,204285.0,312953.0
346239.0,471898.0,204239.0,312950.0
346220.0,471862.0,204264.0,312953.0
346259.0,471899.0,204270.0,312963.0
346270.0,471894.0,204273.0,312973.0
346316.0,471907.0,204277.0,312958.0
346312.0,471978.0,204247.0,312989.0
346331.0,471952.0,204285.0,312962.0
346363.0,471959.0,204281.0,312953.0
346327.0,472009.0,204269.0,312978.0
346377.0,472030.0,204267.0,312974.0
346377.0,472065.0,204290.0,312976.0
346374.0,472052.0,204284.0,312972.0
346386.0,472071.0,204289.0,313005.0
346383.0,472045.0,204275.0,313008.0
346385.0,472051.0,204334.0,312991.0
346389.0,472041.0,204306.0,312956.0
346393.0,472001.0,204306.0,312990.0
346390.0,472041.0,204293.0,312957.0
346341.0,471939.0,204294.0,312942.0
346328.0,471983.0,204295.0,312925.0
346343.0,471916.0,204295.0,312979.0
346277.0,471937.0,204283.0,312967.0
346329.0,471899.0,204314.0,312948.0
346342.0,471859.0,204297.0,312978.0
346250.0,471859.0,204294.0,312977.0
346282.0,471814.0,204293.0,312941.0
346246.0,471820.0,204310.0,312951.0
346245.0,471862.0,204266.0,312952.0
346249.0,471752.0,204255.0,312920.0
346240.0,471791.0,204286.0,312962.0
346227.0,471777.0,204244.0,312954.0
346236.0,471805.0,204247.0,312938.0
346243.0,471781.0,204256.0,312946.0
346274.0,471771.0,204263.0,312943.0
346216.0,471793.0,204245.0,312962.0
346234.0,471783.0,204233.0,312881.0
346262.0,471749.0,204243.0,312907.0
346236.0,471712.0,204233.0,312922.0
346231.0,471701.0,204236.0,312959.0
346239.0,471739.0,204216.0,312924.0
346233.0,471744.0,204199.0,312922.0
346229.0,471781.0,204198.0,312946.0
346248.0,471748.0,204201.0,312896.0
346244.0,471758.0,204219.0,312945.0
346213.0,471775.0,204207.0,312887.0
346277.0,471747.0,204202.0,312931.0
346268.0,471681.0,204198.0,312951.0
346268.0,471717.0,204223.0,312945.0
346232.0,471670.0,204209.0,312928.0
346251.0,471709.0,204217.0,312950.0
346230.0,471688.0,204191.0,312928.0
346263.0,471682.0,204187.0,312920.0
346270.0,471710.0,204172.0,312955.0
346234.0,471715.0,204177.0,312970.0
346263.0,471710.0,204180.0,312936.0
346311.0,471752.0,204182.0,312883.0
346243.0,471706.0,204200.0,312907.0
346256.0,471713.0,204186.0,312919.0
346270.0,471759.0,204171.0,312927.0
346238.0,471691.0,204148.0,312934.0
346283.0,471753.0,204146.0,312952.0
346287.0,471671.0,204156.0,312894.0
346293.0,471673.0,204175.0,312912.0
346281.0,471746.0,204158.0,312909.0
346307.0,471752.0,204138.0,312901.0
346305.0,471766.0,204151.0,312911.0
346315.0,471697.0,204154.0,312900.0
346324.0,471720.0,204126.0,312915.0
346306.0,471726.0,204123.0,312909.0
346347.0,471735.0,204119.0,312886.0
346356.0,471774.0,204107.0,312884.0
346335.0,471773.0,204100.0,312914.0
346370.0,471749.0,204118.0,312944.0
346338.0,471816.0,204129.0,312966.0
346392.0,471774.0,204106.0,312936.0
346405.0,471795.0,204097.0,312953.0
346459.0,471767.0,204112.0,312915.0
346385.0,471804.0,204105.0,312935.0
346399.0,471838.0,204091.0,312940.0
346429.0,471788.0,204105.0,312903.0
346447.0,471775.0,204105.0,312945.0
346440.0,471796.0,204104.0,312913.0
346454.0,471771.0,204078.0,312927.0
346453.0,471850.0,204090.0,312890.0
346415.0,471847.0,204064.0,312923.0
346438.0,471854.0,204056.0,312921.0
346461.0,471825.0,204072.0,312905.0
346464.0,471833.0,204068.0,312900.0
346491.0,471836.0,204053.0,312914.0
346462.0,471864.0,204080.0,312899.0
346506.0,471856.0,204054.0,312922.0
346513.0,471869.0,204064.0,312929.0
346534.0,471873.0,204030.0,312906.0
346521.0,471922.0,204037.0,312922.0
346517.0,471868.0,204062.0,312928.0
346556.0,471928.0,204043.0,312932.0
346613.0,471927.0,204026.0,312912.0
346568.0,471914.0,204063.0,312959.0
346600.0,471946.0,204043.0,312940.0
346563.0,471930.0,204064.0,312940.0
346529.0,471885.0,204060.0,312943.0
346585.0,471849.0,204049.0,312971.0
346579.0,471876.0,204074.0,312942.0
346574.0,471840.0,204025.0,312911.0
346508.0,471837.0,204030.0,312889.0
346504.0,471789.0,204057.0,312918.0
346519.0,471767.0,204013.0,312859.0
346491.0,471706.0,204009.0,312860.0
346467.0,471746.0,204024.0,312859.0
346417.0,471685.0,204007.0,312956.0
346450.0,471729.0,203998.0,312904.0
346495.0,471680.0,203989.0,312891.0
346461.0,471652.0,204005.0,312900.0
346485.0,471649.0,204014.0,312892.0
346469.0,471643.0,203968.0,312898.0
346436.0,471634.0,203956.0,312909.0
346479.0,471571.0,203947.0,312865.0
346454.0,471657.0,203967.0,312895.0
346415.0,471590.0,203979.0,312918.0
346464.0,471607.0,203957.0,312913.0
346443.0,471598.0,203976.0,312895.0
346420.0,471577.0,203994.0,312912.0
346491.0,471588.0,203955.0,312904.0
346501.0,471631.0,203950.0,312911.0
346434.0,471597.0,203964.0,312928.0
346436.0,471642.0,203950.0,312908.0
346451.0,471621.0,203968.0,312888.0
346441.0,471610.0,203915.0,312924.0
346427.0,471586.0,203967.0,312924.0
346459.0,471554.0,203930.0,312887.0
346471.0,471556.0,203952.0,312937.0
346498.0,471545.0,203930.0,312922.0
346458.0,471574.0,203949.0,312921.0
346473.0,471578.0,203959.0,312945.0
346457.0,471576.0,203953.0,312912.0
346506.0,471548.0,203958.0,312957.0
346454.0,471544.0,203944.0,312983.0
346448.0,471550.0,203926.0,312979.0
346470.0,471535.0,203946.0,313004.0
346476.0,471540.0,203944.0,312971.0
346544.0,471559.0,203926.0,312945.0
346513.0,471581.0,203895.0,312955.0
346529.0,471560.0,203939.0,312985.0
346546.0,471625.0,203945.0,313028.0
346551.0,471599.0,203935.0,313002.0
346583.0,471627.0,203932.0,313007.0
346577.0,471618.0,203945.0,313024.0
346557.0,471624.0,203955.0,313023.0
346584.0,471608.0,203935.0,313068.0
346587.0,471618.0,203971.0,313067.0
346606.0,471648.0,203950.0,313068.0
346663.0,471623.0,203935.0,313068.0
346664.0,471666.0,203950.0,313105.0
346643.0,471703.0,203966.0,313125.0
346687.0,471746.0,203963.0,313112.0
346665.0,471773.0,203948.0,313143.0
346717.0,471833.0,203943.0,313152.0
346732.0,471734.0,203956.0,313188.0
346714.0,471824.0,203965.0,313166.0
346750.0,471860.0,203954.0,313195.0
346745.0,471824.0,203976.0,313176.0
346833.0,471884.0,203974.0,313162.0
346765.0,471903.0,204013.0,313223.0
346802.0,471913.0,203991.0,313250.0
346846.0,471961.0,203968.0,313218.0
346907.0,471952.0,203979.0,313238.0
346891.0,471962.0,203988.0,313268.0
346872.0,471954.0,204003.0,313287.0
346934.0,472074.0,204008.0,313306.0
346977.0,472036.0,203997.0,313320.0
346952.0,472071.0,203991.0,313331.0
347026.0,472095.0,204018.0,313377.0
347020.0,472104.0,204034.0,313382.0
347055.0,472197.0,204022.0,313351.0
