371773.0,516156.0,256358.0,349611.0
371810.0,516280.0,256371.0,349742.0
371938.0,516475.0,256373.0,349903.0
371979.0,516620.0,256408.0,349918.0
372086.0,516838.0,256360.0,349952.0
372150.0,516984.0,256247.0,349967.0
372160.0,517097.0,256049.0,349823.0
372242.0,517193.0,255741.0,349729.0
372334.0,517337.0,255498.0,349684.0
372431.0,517510.0,255359.0,349658.0
372491.0,517655.0,255224.0,349653.0
372596.0,517758.0,255121.0,349678.0
372654.0,517791.0,254986.0,349735.0
372706.0,517792.0,254821.0,349754.0
372723.0,517678.0,254690.0,349853.0
372744.0,517571.0,254627.0,349969.0
372694.0,517497.0,254759.0,350237.0
372713.0,517468.0,254897.0,350479.0
372676.0,517528.0,255160.0,350734.0
372727.0,517536.0,255412.0,351005.0
372693.0,517471.0,255718.0,351276.0
372704.0,517490.0,255961.0,351592.0
372695.0,517592.0,256228.0,351812.0
372730.0,517686.0,256607.0,352044.0
372719.0,517797.0,256914.0,352311.0
372710.0,517928.0,257216.0,352514.0
372770.0,518025.0,257542.0,352750.0
372759.0,518158.0,257831.0,352897.0
372812.0,518333.0,258108.0,353094.0
372823.0,518415.0,258340.0,353249.0
372836.0,518546.0,258566.0,353438.0
372888.0,518616.0,258818.0,353589.0
372898.0,518674.0,259035.0,353672.0
372837.0,518728.0,259271.0,353833.0
372843.0,518773.0,259416.0,353889.0
372804.0,518805.0,259557.0,354007.0
372745.0,518816.0,259713.0,354021.0
372788.0,518851.0,259859.0,354144.0
372759.0,518911.0,259910.0,354232.0
372751.0,518924.0,260033.0,354221.0
372770.0,518947.0,260083.0,354272.0
372818.0,519004.0,260171.0,354295.0
372824.0,519087.0,260270.0,354332.0
372742.0,519145.0,260356.0,354416.0
372792.0,519237.0,260419.0,354441.0
372809.0,519232.0,260505.0,354477.0
372842.0,519288.0,260613.0,354585.0
372854.0,519377.0,260695.0,354709.0
372921.0,519411.0,260798.0,354796.0
372998.0,519527.0,260921.0,354875.0
372990.0,519595.0,261034.0,354922.0
373038.0,519700.0,261037.0,354939.0
373033.0,519687.0,261036.0,354990.0
373097.0,519789.0,261098.0,354937.0
373125.0,519882.0,261119.0,354930.0
373178.0,519932.0,261129.0,354983.0
373220.0,520057.0,261209.0,354998.0
373254.0,520102.0,261285.0,355008.0
373293.0,520215.0,261355.0,355039.0
373351.0,520353.0,261453.0,355081.0
373352.0,520431.0,261501.0,355073.0
373406.0,520573.0,261563.0,355115.0
373437.0,520605.0,261551.0,355075.0
373493.0,520741.0,261624.0,355045.0
373520.0,520827.0,261669.0,355135.0
373547.0,520937.0,261768.0,355094.0
373592.0,521007.0,261842.0,355119.0
373640.0,521230.0,261940.0,355149.0
373729.0,521368.0,262045.0,355210.0
373868.0,521584.0,262171.0,355209.0
373868.0,521779.0,262262.0,355270.0
373926.0,521887.0,262356.0,355251.0
373968.0,522021.0,262376.0,355317.0
374047.0,522175.0,262430.0,355370.0
374080.0,522182.0,262495.0,355345.0
374157.0,522262.0,262494.0,355351.0
374198.0,522370.0,262483.0,355332.0
374203.0,522426.0,262513.0,355318.0
374243.0,522496.0,262502.0,355324.0
374246.0,522476.0,262541.0,355367.0
374329.0,522523.0,262478.0,355315.0
374301.0,522529.0,262491.0,355325.0
374322.0,522570.0,262460.0,355285.0
374357.0,522551.0,262462.0,355276.0
374354.0,522555.0,262442.0,355268.0
374348.0,522494.0,262424.0,355228.0
374379.0,522538.0,262394.0,355248.0
374411.0,522540.0,262398.0,355275.0
374383.0,522544.0,262442.0,355308.0
374447.0,522506.0,262442.0,355297.0
374419.0,522544.0,262444.0,355253.0
374434.0,522532.0,262456.0,355320.0
374441.0,522545.0,262484.0,355370.0
374466.0,522500.0,262470.0,355362.0
374460.0,522522.0,262468.0,355365.0
374442.0,522457.0,262460.0,355386.0
374456.0,522420.0,262438.0,355365.0
374417.0,522421.0,262470.0,355377.0
374380.0,522373.0,262413.0,355388.0
374416.0,522461.0,262461.0,355432.0
374427.0,522367.0,262500.0,355400.0
374445.0,522376.0,262508.0,355442.0
374440.0,522354.0,262560.0,355437.0
374390.0,522417.0,262649.0,355496.0
374440.0,522507.0,262746.0,355579.0
374441.0,522618.0,262854.0,355591.0
374511.0,522720.0,262958.0,355666.0
374527.0,522820.0,263058.0,355719.0
374551.0,522910.0,263171.0,355814.0
374617.0,523122.0,263298.0,355847.0
374686.0,523341.0,263504.0,355927.0
374785.0,523466.0,263609.0,356031.0
374915.0,523759.0,263774.0,356068.0
374986.0,523909.0,263916.0,356148.0
375099.0,524173.0,264089.0,356197.0
375178.0,524272.0,264184.0,356376.0
375266.0,524287.0,264363.0,356408.0
375386.0,524287.0,264552.0,356487.0
375542.0,524287.0,264721.0,356592.0
375627.0,524287.0,264858.0,356689.0
375753.0,524287.0,264967.0,356733.0
375863.0,524287.0,264996.0,356788.0
375966.0,524287.0,265111.0,356821.0
376066.0,524287.0,265136.0,356835.0
376137.0,524287.0,265185.0,356806.0
376210.0,524287.0,265194.0,356841.0
376364.0,524287.0,265233.0,356856.0
376396.0,524287.0,265210.0,356777.0
376500.0,524287.0,265202.0,356851.0
376514.0,524287.0,265176.0,356761.0
376577.0,524287.0,265192.0,356728.0
376681.0,524287.0,265155.0,356723.0
376729.0,524287.0,265169.0,356755.0
376754.0,524287.0,265100.0,356690.0
376796.0,524287.0,265058.0,356656.0
376854.0,524287.0,264994.0,356611.0
376933.0,524287.0,264955.0,356534.0
376928.0,524287.0,264886.0,356534.0
376943.0,524287.0,264828.0,356444.0
377001.0,524287.0,264739.0,356372.0
377033.0,524287.0,264696.0,356302.0
377078.0,524287.0,264659.0,356328.0
377185.0,524287.0,264656.0,356209.0
377265.0,524287.0,264643.0,356200.0
377293.0,524287.0,264616.0,356146.0
377379.0,524287.0,264593.0,356141.0
377460.0,524287.0,264578.0,356126.0
377514.0,524287.0,264510.0,356083.0
377566.0,524287.0,264501.0,356051.0
377621.0,524287.0,264433.0,355995.0
377674.0,524287.0,264394.0,355999.0
377685.0,524287.0,264363.0,355937.0
377691.0,524287.0,264282.0,355872.0
377787.0,524287.0,264176.0,355828.0
377792.0,524287.0,264115.0,355817.0
377807.0,524287.0,264047.0,355749.0
377814.0,524287.0,263923.0,355689.0
377825.0,524287.0,263825.0,355624.0
377830.0,524287.0,263704.0,355527.0
377841.0,524287.0,263623.0,355544.0
377826.0,524287.0,263604.0,355580.0
377921.0,524287.0,263637.0,355506.0
377848.0,524287.0,263586.0,355530.0
377860.0,524287.0,263543.0,355470.0
377847.0,524287.0,263434.0,355421.0
377826.0,524287.0,263401.0,355412.0
377857.0,524287.0,263314.0,355344.0
377819.0,524287.0,263274.0,355237.0
377788.0,524287.0,263197.0,355229.0
377839.0,524287.0,263129.0,355170.0
377823.0,524287.0,263008.0,355126.0
377840.0,524287.0,262951.0,355027.0
377789.0,524287.0,262849.0,354988.0
377784.0,524287.0,262746.0,354928.0
377766.0,524287.0,262632.0,354807.0
377773.0,524287.0,262538.0,354807.0
377771.0,524287.0,262462.0,354774.0
377724.0,524287.0,262399.0,354720.0
377727.0,524287.0,262417.0,354741.0
377702.0,524287.0,262402.0,354691.0
377728.0,524287.0,262416.0,354726.0
377712.0,524287.0,262379.0,354694.0
377729.0,524287.0,262380.0,354678.0
377691.0,524287.0,262372.0,354696.0
377690.0,524287.0,262325.0,354666.0
377699.0,524287.0,262337.0,354718.0
377671.0,524287.0,262322.0,354663.0
377694.0,524287.0,262327.0,354706.0
377753.0,524287.0,262373.0,354724.0
377737.0,524287.0,262380.0,354719.0
377753.0,524287.0,262481.0,354785.0
377818.0,524287.0,262571.0,354845.0
377803.0,524287.0,262703.0,354871.0
377891.0,524287.0,262841.0,354950.0
377933.0,524287.0,262941.0,355020.0
377930.0,524287.0,263030.0,355053.0
378004.0,524287.0,263091.0,355116.0
378038.0,524287.0,263178.0,355138.0
378058.0,524287.0,263156.0,355078.0
378085.0,524287.0,263155.0,355132.0
378083.0,524287.0,263200.0,355084.0
378146.0,524287.0,263194.0,355136.0
378101.0,524287.0,263188.0,355106.0
378146.0,524287.0,263197.0,355102.0
378216.0,524287.0,263207.0,355077.0
378190.0,524287.0,263171.0,355033.0
378205.0,524287.0,263131.0,355075.0
378190.0,524287.0,263138.0,355013.0
378176.0,524287.0,263105.0,354993.0
378220.0,524287.0,263036.0,354992.0
378195.0,524287.0,263010.0,354938.0
378206.0,524287.0,262915.0,354897.0
378166.0,524287.0,262886.0,354863.0
378157.0,524287.0,262834.0,354851.0
378197.0,524287.0,262818.0,354784.0
378176.0,524287.0,262794.0,354768.0
378150.0,524287.0,262711.0,354725.0
378126.0,524287.0,262619.0,354638.0
378139.0,524287.0,262584.0,354572.0
378076.0,524287.0,262527.0,354500.0
378086.0,524287.0,262462.0,354485.0
378090.0,524287.0,262392.0,354447.0
377987.0,524287.0,262376.0,354470.0
377967.0,524287.0,262261.0,354344.0
377949.0,524287.0,262143.0,354348.0
377911.0,524287.0,262057.0,354217.0
377844.0,524287.0,261886.0,354134.0
377827.0,524287.0,261749.0,354052.0
377796.0,524287.0,261640.0,353968.0
377709.0,524287.0,261560.0,353927.0
377661.0,524287.0,261485.0,353883.0
377586.0,524287.0,261450.0,353852.0
377543.0,524287.0,261330.0,353780.0
377557.0,524287.0,261237.0,353666.0
377516.0,524287.0,261133.0,353675.0
377404.0,524287.0,261089.0,353624.0
377406.0,524287.0,261010.0,353592.0
377366.0,524287.0,260942.0,353529.0
377333.0,524287.0,260954.0,353537.0
377272.0,524287.0,260865.0,353499.0
377229.0,524287.0,260780.0,353425.0
377219.0,524287.0,260766.0,353441.0
377139.0,524287.0,260717.0,353405.0
377153.0,524287.0,260666.0,353354.0
377130.0,524287.0,260699.0,353384.0
377101.0,524287.0,260692.0,353436.0
377060.0,524287.0,260826.0,353483.0
377104.0,524287.0,260909.0,353517.0
377079.0,524287.0,260962.0,353538.0
377090.0,524287.0,261025.0,353597.0
377063.0,524287.0,261101.0,353626.0
377096.0,524287.0,261185.0,353646.0
377094.0,524287.0,261220.0,353729.0
377129.0,524287.0,261249.0,353730.0
377115.0,524287.0,261266.0,353698.0
377164.0,524287.0,261313.0,353671.0
377167.0,524287.0,261279.0,353698.0
377144.0,524287.0,261280.0,353671.0
377141.0,524287.0,261272.0,353659.0
377127.0,524287.0,261203.0,353638.0
377161.0,524287.0,261171.0,353636.0
377145.0,524287.0,261132.0,353605.0
377140.0,524287.0,261029.0,353569.0
377126.0,524287.0,261005.0,353537.0
377085.0,524287.0,260919.0,353482.0
377048.0,524287.0,260882.0,353470.0
377104.0,524287.0,260839.0,353396.0
377071.0,524287.0,260779.0,353379.0
377041.0,524287.0,260661.0,353306.0
376925.0,524287.0,260567.0,353211.0
376918.0,524287.0,260450.0,353122.0
376870.0,524287.0,260416.0,353092.0
376815.0,524287.0,260320.0,353038.0
376738.0,524287.0,260245.0,353042.0
376692.0,524287.0,260174.0,353026.0
376591.0,524287.0,260106.0,352966.0
376492.0,524287.0,259933.0,352864.0
376419.0,524287.0,259767.0,352721.0
376355.0,524287.0,259596.0,352619.0
376292.0,524287.0,259417.0,352524.0
376234.0,524281.0,259245.0,352453.0
376117.0,524232.0,259047.0,352260.0
376107.0,524033.0,258873.0,352190.0
376001.0,523882.0,258707.0,352033.0
375943.0,523714.0,258551.0,351876.0
375873.0,523516.0,258409.0,351860.0
375901.0,523446.0,258276.0,351765.0
375820.0,523326.0,258153.0,351618.0
375752.0,523221.0,258100.0,351547.0
375736.0,523096.0,257972.0,351471.0
375666.0,523063.0,257818.0,351382.0
375676.0,522915.0,257680.0,351352.0
375625.0,522779.0,257590.0,351220.0
375571.0,522638.0,257455.0,351152.0
375475.0,522567.0,257318.0,351081.0
375486.0,522489.0,257257.0,351076.0
375410.0,522326.0,257135.0,350998.0
375382.0,522227.0,257023.0,350932.0
375344.0,522171.0,256961.0,350881.0
375265.0,522039.0,256907.0,350827.0
375288.0,521879.0,256819.0,350810.0
375176.0,521809.0,256736.0,350709.0
375189.0,521744.0,256678.0,350710.0
375081.0,521647.0,256606.0,350650.0
375088.0,521537.0,256562.0,350654.0
375044.0,521414.0,256461.0,350561.0
375033.0,521390.0,256373.0,350555.0
374993.0,521276.0,256292.0,350468.0
374932.0,521189.0,256224.0,350432.0
374932.0,521184.0,256208.0,350426.0
374866.0,521055.0,256172.0,350435.0
374873.0,521104.0,256133.0,350392.0
374813.0,520971.0,256089.0,350342.0
374795.0,520986.0,255974.0,350281.0
374757.0,520899.0,256021.0,350374.0
374750.0,520873.0,255972.0,350332.0
374739.0,520843.0,255960.0,350278.0
374732.0,520760.0,255915.0,350275.0
374761.0,520714.0,255830.0,350220.0
374729.0,520667.0,255797.0,350220.0
374722.0,520629.0,255826.0,350230.0
374664.0,520570.0,255831.0,350198.0
374696.0,520607.0,255827.0,350221.0
374659.0,520591.0,255817.0,350199.0
374659.0,520489.0,255773.0,350142.0
374615.0,520462.0,255683.0,350091.0
374551.0,520423.0,255598.0,350005.0
374544.0,520292.0,255527.0,349977.0
374565.0,520267.0,255468.0,349954.0
374561.0,520196.0,255408.0,349921.0
374577.0,520150.0,255409.0,349908.0
374534.0,520156.0,255421.0,349936.0
374498.0,520117.0,255421.0,349922.0
374454.0,520110.0,255323.0,349882.0
374452.0,519964.0,255282.0,349852.0
374424.0,519866.0,255182.0,349827.0
374397.0,519826.0,255113.0,349792.0
374347.0,519742.0,255065.0,349730.0
374322.0,519712.0,255013.0,349696.0
374362.0,519696.0,254966.0,349694.0
374293.0,519604.0,254881.0,349643.0
374317.0,519518.0,254792.0,349582.0
374268.0,519427.0,254702.0,349540.0
374267.0,519269.0,254661.0,349548.0
374214.0,519297.0,254631.0,349548.0
374222.0,519277.0,254644.0,349503.0
374222.0,519210.0,254695.0,349544.0
374220.0,519218.0,254684.0,349571.0
374149.0,519152.0,254773.0,349585.0
374129.0,519130.0,254800.0,349590.0
374078.0,519067.0,254869.0,349610.0
374072.0,519039.0,254876.0,349604.0
374002.0,518974.0,254924.0,349648.0
373995.0,519036.0,254931.0,349607.0
374002.0,518938.0,254976.0,349637.0
373961.0,518985.0,254970.0,349635.0
373930.0,518939.0,254999.0,349679.0
373908.0,518914.0,255076.0,349677.0
373912.0,518922.0,255108.0,349686.0
373899.0,518963.0,255174.0,349711.0
373933.0,518998.0,255248.0,349756.0
373928.0,519077.0,255246.0,349780.0
373923.0,519059.0,255252.0,349766.0
373905.0,519032.0,255293.0,349827.0
373887.0,519067.0,255277.0,349784.0
373863.0,519086.0,255235.0,349793.0
373904.0,518982.0,255247.0,349728.0
373902.0,518993.0,255203.0,349717.0
373848.0,518983.0,255161.0,349693.0
373865.0,518928.0,255114.0,349649.0
373865.0,518909.0,255096.0,349676.0
373848.0,518874.0,255107.0,349667.0
373801.0,518807.0,255130.0,349634.0
373846.0,518823.0,255117.0,349661.0
373742.0,518805.0,255139.0,349604.0
373772.0,518779.0,255129.0,349617.0
373768.0,518706.0,255095.0,349621.0
373716.0,518771.0,255069.0,349552.0
373717.0,518672.0,255076.0,349548.0
373685.0,518755.0,255048.0,349484.0
373680.0,518728.0,255067.0,349562.0
373716.0,518720.0,255113.0,349528.0
373673.0,518773.0,255092.0,349566.0
373692.0,518795.0,255146.0,349538.0
373701.0,518823.0,255182.0,349543.0
373698.0,518736.0,255155.0,349563.0
373666.0,518795.0,255140.0,349572.0
373759.0,518875.0,255160.0,349546.0
373727.0,518825.0,255119.0,349542.0
373689.0,518849.0,255187.0,349572.0
373717.0,518851.0,255190.0,349549.0
373785.0,518861.0,255189.0,349551.0
373732.0,518858.0,255139.0,349542.0
373767.0,518822.0,255116.0,349528.0
373741.0,518866.0,255142.0,349558.0
373730.0,518877.0,255155.0,349544.0
373763.0,518930.0,255217.0,349605.0
373763.0,518924.0,255357.0,349668.0
373750.0,519031.0,255472.0,349786.0
373786.0,519090.0,255604.0,349855.0
373841.0,519237.0,255797.0,349980.0
373825.0,519388.0,255924.0,350066.0
373891.0,519488.0,256064.0,350103.0
373887.0,519623.0,256159.0,350177.0
373922.0,519698.0,256184.0,350207.0
373989.0,519773.0,256167.0,350237.0
373961.0,519811.0,256182.0,350219.0
373975.0,519763.0,256228.0,350237.0
374007.0,519838.0,256184.0,350250.0
374044.0,519846.0,256209.0,350214.0
374035.0,519868.0,256165.0,350286.0
374087.0,519925.0,256191.0,350230.0
374079.0,520000.0,256176.0,350267.0
374110.0,520033.0,256149.0,350239.0
374153.0,520035.0,256103.0,350194.0
374170.0,520043.0,256097.0,350194.0
374181.0,520089.0,256035.0,350166.0
374215.0,520113.0,255977.0,350189.0
374241.0,520136.0,255908.0,350122.0
374229.0,520081.0,255886.0,350064.0
374237.0,520100.0,255808.0,350061.0
374247.0,520127.0,255794.0,350058.0
374301.0,520103.0,255737.0,350011.0
374296.0,520050.0,255654.0,349905.0
374318.0,520013.0,255570.0,349860.0
374328.0,519961.0,255467.0,349791.0
374316.0,519881.0,255394.0,349763.0
374268.0,519849.0,255289.0,349683.0
374245.0,519762.0,255251.0,349653.0
374245.0,519756.0,255187.0,349592.0
374216.0,519662.0,255097.0,349563.0
374251.0,519628.0,255011.0,349524.0
374211.0,519578.0,255025.0,349500.0
374170.0,519488.0,254988.0,349460.0
374206.0,519466.0,254927.0,349427.0
374158.0,519445.0,254917.0,349409.0
374128.0,519424.0,254876.0,349445.0
374116.0,519399.0,254866.0,349365.0
374163.0,519313.0,254852.0,349380.0
374106.0,519352.0,254753.0,349362.0
374101.0,519234.0,254683.0,349300.0
374126.0,519229.0,254650.0,349248.0
374144.0,519258.0,254707.0,349309.0
374134.0,519266.0,254717.0,349290.0
374097.0,519253.0,254742.0,349287.0
374124.0,519216.0,254710.0,349287.0
374118.0,519154.0,254627.0,349242.0
374121.0,519139.0,254529.0,349181.0
374105.0,519049.0,254352.0,349078.0
374083.0,518965.0,254261.0,349002.0
374021.0,518856.0,254085.0,348873.0
374078.0,518709.0,253924.0,348782.0
374028.0,518681.0,253763.0,348735.0
374057.0,518590.0,253657.0,348614.0
374010.0,518420.0,253510.0,348537.0
373972.0,518334.0,253344.0,348440.0
373974.0,518244.0,253273.0,348360.0
373924.0,518168.0,253198.0,348318.0
373919.0,518126.0,253110.0,348343.0
373962.0,518130.0,253081.0,348257.0
373927.0,518083.0,253143.0,348316.0
373916.0,518138.0,253264.0,348431.0
373951.0,518129.0,253418.0,348508.0
373933.0,518198.0,253583.0,348633.0
373929.0,518262.0,253626.0,348677.0
373922.0,518258.0,253761.0,348723.0
373956.0,518413.0,253882.0,348810.0
373958.0,518483.0,254011.0,348889.0
374014.0,518574.0,254160.0,348981.0
374027.0,518793.0,254320.0,349059.0
374132.0,518975.0,254528.0,349231.0
374196.0,519242.0,254813.0,349387.0
374197.0,519513.0,255149.0,349553.0
374314.0,519843.0,255457.0,349808.0
374434.0,520208.0,255890.0,350011.0
374516.0,520636.0,256227.0,350365.0
374608.0,521058.0,256661.0,350531.0
374754.0,521550.0,257107.0,350833.0
374804.0,521990.0,257522.0,351104.0
374966.0,522477.0,257867.0,351260.0
375034.0,522806.0,258236.0,351501.0
375140.0,523208.0,258506.0,351649.0
375271.0,523548.0,258717.0,351793.0
375362.0,523781.0,258919.0,351949.0
375460.0,524042.0,259085.0,352025.0
375511.0,524203.0,259156.0,352108.0
375638.0,524287.0,259269.0,352122.0
375654.0,524287.0,259283.0,352163.0
375683.0,524287.0,259335.0,352245.0
375711.0,524287.0,259302.0,352188.0
375789.0,524287.0,259342.0,352215.0
375820.0,524287.0,259331.0,352184.0
375863.0,524287.0,259330.0,352171.0
375855.0,524287.0,259325.0,352151.0
375907.0,524287.0,259303.0,352133.0
375966.0,524287.0,259268.0,352112.0
375972.0,524287.0,259227.0,352034.0
375969.0,524287.0,259129.0,352002.0
375932.0,524287.0,259183.0,351961.0
375909.0,524287.0,259127.0,351915.0
375928.0,524287.0,259071.0,351910.0
375956.0,524287.0,259091.0,351854.0
375928.0,524287.0,259139.0,351886.0
375927.0,524287.0,259092.0,351902.0
