374009.0,524287.0,258462.0,350806.0
374006.0,524287.0,258419.0,350771.0
373959.0,524287.0,258366.0,350754.0
374004.0,524287.0,258324.0,350743.0
373963.0,524287.0,258335.0,350762.0
374015.0,524287.0,258257.0,350750.0
374023.0,524287.0,258284.0,350743.0
373990.0,524287.0,258200.0,350704.0
373976.0,524287.0,258166.0,350667.0
373962.0,524287.0,258127.0,350626.0
373953.0,524287.0,258097.0,350613.0
373924.0,524287.0,258046.0,350618.0
373960.0,524287.0,258032.0,350560.0
373923.0,524287.0,258007.0,350601.0
373954.0,524287.0,257938.0,350557.0
373916.0,524287.0,257968.0,350580.0
373938.0,524287.0,257957.0,350567.0
373972.0,524287.0,257987.0,350616.0
373956.0,524287.0,257983.0,350630.0
373968.0,524287.0,258080.0,350665.0
374015.0,524287.0,258040.0,350688.0
374029.0,524287.0,258053.0,350675.0
374019.0,524287.0,258047.0,350699.0
374021.0,524287.0,258076.0,350708.0
374058.0,524287.0,258064.0,350656.0
374035.0,524287.0,258067.0,350602.0
374069.0,524287.0,257996.0,350569.0
373999.0,524287.0,257974.0,350552.0
374037.0,524287.0,257957.0,350519.0
374014.0,524287.0,257957.0,350505.0
374009.0,524287.0,257933.0,350502.0
374025.0,524287.0,257958.0,350509.0
374008.0,524287.0,257934.0,350508.0
373987.0,524287.0,257937.0,350471.0
374016.0,524287.0,257879.0,350433.0
373967.0,524287.0,257825.0,350411.0
373994.0,524287.0,257753.0,350376.0
373960.0,524287.0,257690.0,350308.0
373992.0,524287.0,257617.0,350277.0
373988.0,524287.0,257619.0,350260.0
373980.0,524287.0,257520.0,350258.0
373989.0,524287.0,257563.0,350266.0
373992.0,524287.0,257522.0,350216.0
374068.0,524287.0,257593.0,350292.0
374099.0,524287.0,257579.0,350320.0
374156.0,524287.0,257668.0,350341.0
374204.0,524287.0,257661.0,350360.0
374234.0,524287.0,257617.0,350352.0
374163.0,524287.0,257654.0,350299.0
374279.0,524287.0,257664.0,350344.0
374296.0,524287.0,257743.0,350408.0
374391.0,524287.0,257867.0,350467.0
374387.0,524287.0,258042.0,350602.0
374509.0,524287.0,258357.0,350827.0
374680.0,524287.0,258884.0,351180.0
374837.0,524287.0,259825.0,351879.0
375107.0,524287.0,261019.0,352880.0
375401.0,524287.0,262246.0,353942.0
375744.0,524287.0,263087.0,354844.0
376078.0,524287.0,263637.0,355503.0
376348.0,524287.0,264066.0,356071.0
376538.0,524287.0,264322.0,356398.0
376856.0,524287.0,264483.0,356581.0
377152.0,524287.0,264653.0,356777.0
377468.0,524287.0,264765.0,356874.0
377911.0,524287.0,264849.0,356987.0
378277.0,524287.0,264950.0,357014.0
378771.0,524287.0,265017.0,357040.0
379276.0,524287.0,265110.0,357098.0
379865.0,524287.0,265296.0,357202.0
380479.0,524287.0,265431.0,357273.0
380990.0,524287.0,265531.0,357255.0
381304.0,524287.0,265531.0,357112.0
381544.0,524287.0,265395.0,356941.0
381650.0,524287.0,265234.0,356643.0
381636.0,524287.0,264998.0,356227.0
381553.0,524287.0,264782.0,355851.0
381528.0,524287.0,264566.0,355508.0
381376.0,524287.0,264224.0,355150.0
381233.0,524287.0,263776.0,354763.0
381036.0,524287.0,263244.0,354350.0
380808.0,524287.0,262586.0,353928.0
380636.0,524287.0,261992.0,353673.0
380409.0,524287.0,261592.0,353479.0
380294.0,524287.0,261231.0,353315.0
380161.0,524287.0,260902.0,353099.0
380129.0,524287.0,260532.0,352904.0
380030.0,524287.0,260215.0,352731.0
379945.0,524287.0,259876.0,352529.0
379884.0,524287.0,259558.0,352363.0
379770.0,524287.0,259361.0,352333.0
379702.0,524287.0,259253.0,352267.0
379678.0,524287.0,259109.0,352243.0
379592.0,524287.0,258942.0,352137.0
379570.0,524287.0,258820.0,352125.0
379482.0,524287.0,258647.0,352039.0
379394.0,524287.0,258479.0,351885.0
379360.0,524287.0,258318.0,351845.0
379314.0,524287.0,258143.0,351777.0
379287.0,524287.0,258087.0,351733.0
379208.0,524287.0,258003.0,351732.0
379187.0,524287.0,257990.0,351711.0
379103.0,524287.0,257934.0,351681.0
379073.0,524287.0,257858.0,351645.0
379047.0,524287.0,257809.0,351594.0
378969.0,524287.0,257730.0,351586.0
378964.0,524287.0,257654.0,351531.0
378897.0,524287.0,257564.0,351419.0
378820.0,524287.0,257414.0,351380.0
378753.0,524287.0,257345.0,351299.0
378719.0,524287.0,257310.0,351284.0
378688.0,524287.0,257255.0,351298.0
378579.0,524287.0,257208.0,351295.0
378545.0,524287.0,257147.0,351224.0
378507.0,524287.0,257126.0,351203.0
378462.0,524287.0,257027.0,351156.0
378397.0,524287.0,257003.0,351161.0
378352.0,524287.0,257026.0,351184.0
378286.0,524287.0,257067.0,351241.0
378265.0,524287.0,257019.0,351239.0
378158.0,524287.0,256997.0,351261.0
378156.0,524287.0,257011.0,351281.0
378064.0,524287.0,257029.0,351262.0
378034.0,524287.0,257013.0,351262.0
378031.0,524287.0,257044.0,351259.0
377945.0,524287.0,257020.0,351297.0
377889.0,524287.0,257010.0,351281.0
377860.0,524287.0,256982.0,351292.0
377801.0,524287.0,256994.0,351264.0
377801.0,524287.0,256960.0,351228.0
377720.0,524287.0,256964.0,351245.0
377691.0,524287.0,256949.0,351267.0
377644.0,524287.0,256949.0,351254.0
377658.0,524287.0,256915.0,351242.0
377580.0,524287.0,256872.0,351202.0
377481.0,524287.0,256854.0,351170.0
377498.0,524287.0,256776.0,351137.0
377449.0,524287.0,256711.0,351103.0
377382.0,524287.0,256649.0,351061.0
377301.0,524287.0,256458.0,350960.0
377276.0,524287.0,256418.0,350919.0
377276.0,524287.0,256288.0,350861.0
377207.0,524287.0,256196.0,350856.0
377139.0,524287.0,256180.0,350838.0
377140.0,524287.0,256165.0,350815.0
377114.0,524287.0,256081.0,350834.0
377081.0,524287.0,256085.0,350786.0
377025.0,524287.0,256075.0,350769.0
377013.0,524287.0,256035.0,350756.0
376942.0,524287.0,255965.0,350706.0
376970.0,524287.0,255949.0,350647.0
376904.0,524287.0,255873.0,350605.0
376889.0,524287.0,255809.0,350578.0
376891.0,524287.0,255736.0,350451.0
376863.0,524287.0,255667.0,350380.0
376874.0,524287.0,255631.0,350386.0
376821.0,524287.0,255571.0,350338.0
376788.0,524287.0,255556.0,350273.0
376766.0,524287.0,255553.0,350221.0
376783.0,524287.0,255467.0,350163.0
376717.0,524287.0,255445.0,350126.0
376710.0,524287.0,255410.0,350120.0
376714.0,524287.0,255451.0,350106.0
376696.0,524287.0,255429.0,350098.0
376699.0,524287.0,255496.0,350100.0
376691.0,524287.0,255605.0,350116.0
376714.0,524287.0,255749.0,350194.0
376679.0,524287.0,255892.0,350309.0
376714.0,524287.0,256048.0,350360.0
376673.0,524287.0,256197.0,350446.0
376704.0,524287.0,256269.0,350480.0
376692.0,524287.0,256387.0,350587.0
376711.0,524287.0,256489.0,350640.0
376683.0,524287.0,256606.0,350685.0
376750.0,524287.0,256718.0,350747.0
376726.0,524287.0,256795.0,350827.0
376772.0,524287.0,256939.0,350957.0
376756.0,524287.0,257069.0,350990.0
376725.0,524287.0,257167.0,351122.0
376752.0,524287.0,257234.0,351145.0
376770.0,524287.0,257265.0,351159.0
376734.0,524287.0,257338.0,351189.0
376739.0,524287.0,257316.0,351203.0
376763.0,524287.0,257335.0,351185.0
376699.0,524287.0,257348.0,351197.0
376678.0,524287.0,257380.0,351233.0
376693.0,524287.0,257357.0,351247.0
376686.0,524287.0,257367.0,351225.0
376697.0,524287.0,257363.0,351233.0
376682.0,524287.0,257399.0,351257.0
376700.0,524287.0,257347.0,351304.0
376671.0,524287.0,257366.0,351284.0
376659.0,524287.0,257332.0,351260.0
376653.0,524287.0,257271.0,351230.0
376655.0,524287.0,257247.0,351224.0
376602.0,524287.0,257248.0,351230.0
376558.0,524287.0,257247.0,351239.0
376549.0,524287.0,257254.0,351221.0
376609.0,524287.0,257210.0,351238.0
376532.0,524287.0,257161.0,351220.0
376582.0,524287.0,257173.0,351213.0
376524.0,524287.0,257051.0,351157.0
376482.0,524287.0,256980.0,351100.0
376498.0,524287.0,256876.0,351069.0
376451.0,524287.0,256762.0,350986.0
376414.0,524287.0,256646.0,350921.0
376439.0,524287.0,256465.0,350806.0
376383.0,524287.0,256304.0,350685.0
376349.0,524287.0,256133.0,350564.0
376278.0,524287.0,255986.0,350474.0
376264.0,524287.0,255784.0,350243.0
376214.0,524287.0,255585.0,350162.0
376196.0,524287.0,255410.0,350135.0
376202.0,524287.0,255267.0,350014.0
376145.0,524287.0,255123.0,349943.0
376112.0,524287.0,254994.0,349885.0
376093.0,524287.0,254820.0,349867.0
376098.0,524287.0,254700.0,349712.0
376058.0,524287.0,254603.0,349692.0
376037.0,524287.0,254445.0,349596.0
376005.0,524287.0,254358.0,349620.0
375989.0,524287.0,254307.0,349523.0
375989.0,524287.0,254206.0,349472.0
375921.0,524287.0,254130.0,349464.0
375936.0,524287.0,254036.0,349394.0
375976.0,524287.0,254059.0,349423.0
375918.0,524287.0,254036.0,349328.0
375886.0,524287.0,253969.0,349310.0
375887.0,524287.0,253931.0,349276.0
375877.0,524287.0,253911.0,349257.0
375895.0,524287.0,253849.0,349254.0
375829.0,524287.0,253896.0,349268.0
375833.0,524287.0,253942.0,349245.0
375832.0,524287.0,254009.0,349277.0
375879.0,524287.0,254102.0,349346.0
375859.0,524287.0,254273.0,349439.0
375844.0,524287.0,254390.0,349498.0
375853.0,524287.0,254523.0,349590.0
375816.0,524287.0,254622.0,349696.0
375841.0,524287.0,254669.0,349719.0
375806.0,524287.0,254725.0,349764.0
375831.0,524287.0,254740.0,349757.0
375846.0,524287.0,254743.0,349746.0
375822.0,524287.0,254724.0,349765.0
375800.0,524287.0,254718.0,349782.0
375788.0,524287.0,254751.0,349801.0
375821.0,524287.0,254787.0,349801.0
375832.0,524287.0,254783.0,349820.0
375800.0,524287.0,254750.0,349807.0
375797.0,524287.0,254737.0,349822.0
375792.0,524287.0,254712.0,349787.0
375800.0,524287.0,254659.0,349733.0
375764.0,524287.0,254609.0,349691.0
375724.0,524287.0,254567.0,349685.0
375676.0,524287.0,254496.0,349627.0
375676.0,524287.0,254447.0,349540.0
375635.0,524287.0,254389.0,349510.0
375589.0,524287.0,254277.0,349459.0
375557.0,524287.0,254171.0,349366.0
375560.0,524287.0,254074.0,349374.0
375512.0,524287.0,253931.0,349288.0
375455.0,524287.0,253801.0,349193.0
375497.0,524287.0,253725.0,349142.0
375425.0,524287.0,253640.0,349084.0
375370.0,524287.0,253524.0,349063.0
375330.0,524287.0,253407.0,349047.0
375345.0,524287.0,253340.0,348999.0
375282.0,524287.0,253246.0,348911.0
375266.0,524287.0,253169.0,348859.0
375259.0,524287.0,253082.0,348840.0
375187.0,524287.0,253003.0,348799.0
375163.0,524287.0,252957.0,348763.0
375163.0,524287.0,252919.0,348740.0
375155.0,524287.0,252858.0,348677.0
375155.0,524287.0,252815.0,348678.0
375072.0,524287.0,252743.0,348582.0
375078.0,524287.0,252679.0,348580.0
375083.0,524287.0,252620.0,348552.0
375010.0,524287.0,252536.0,348507.0
375049.0,524287.0,252444.0,348486.0
374980.0,524287.0,252336.0,348385.0
374997.0,524287.0,252226.0,348281.0
374912.0,524287.0,252093.0,348229.0
374940.0,524287.0,252015.0,348146.0
374891.0,524283.0,251959.0,348068.0
374854.0,524259.0,251865.0,348045.0
374829.0,524250.0,251811.0,347990.0
374807.0,524168.0,251754.0,347966.0
374779.0,524164.0,251679.0,347896.0
374787.0,524106.0,251614.0,347908.0
374797.0,524033.0,251596.0,347900.0
374737.0,523985.0,251557.0,347874.0
374775.0,523912.0,251491.0,347941.0
374718.0,523948.0,251474.0,347828.0
374738.0,523870.0,251450.0,347851.0
374733.0,523809.0,251374.0,347849.0
374682.0,523816.0,251306.0,347815.0
374686.0,523784.0,251289.0,347788.0
374648.0,523737.0,251256.0,347778.0
374623.0,523637.0,251244.0,347785.0
374611.0,523653.0,251227.0,347796.0
374628.0,523558.0,251193.0,347767.0
374587.0,523538.0,251147.0,347754.0
374601.0,523516.0,251139.0,347752.0
374534.0,523440.0,251123.0,347753.0
374519.0,523428.0,251057.0,347727.0
374532.0,523393.0,251004.0,347659.0
374510.0,523369.0,251001.0,347650.0
374428.0,523335.0,250923.0,347590.0
374470.0,523251.0,250870.0,347547.0
374409.0,523213.0,250847.0,347562.0
374383.0,523130.0,250837.0,347519.0
374398.0,523121.0,250772.0,347507.0
374422.0,523071.0,250723.0,347486.0
374365.0,523060.0,250732.0,347517.0
374360.0,522955.0,250706.0,347509.0
374276.0,522949.0,250698.0,347509.0
374350.0,522930.0,250696.0,347493.0
374314.0,522944.0,250706.0,347509.0
374287.0,522905.0,250690.0,347466.0
374331.0,522843.0,250668.0,347488.0
374313.0,522860.0,250639.0,347426.0
374280.0,522809.0,250596.0,347449.0
374297.0,522760.0,250573.0,347357.0
374263.0,522785.0,250501.0,347351.0
374255.0,522719.0,250537.0,347370.0
374197.0,522675.0,250501.0,347320.0
374191.0,522676.0,250513.0,347345.0
374193.0,522597.0,250477.0,347269.0
374159.0,522478.0,250443.0,347260.0
374153.0,522418.0,250435.0,347211.0
374115.0,522398.0,250393.0,347252.0
374003.0,522324.0,250361.0,347214.0
374024.0,522209.0,250310.0,347224.0
373989.0,522169.0,250315.0,347230.0
373940.0,522050.0,250337.0,347264.0
373927.0,522044.0,250332.0,347234.0
373846.0,521984.0,250286.0,347242.0
373786.0,521893.0,250297.0,347216.0
373801.0,521826.0,250236.0,347214.0
373701.0,521694.0,250228.0,347211.0
373719.0,521601.0,250200.0,347181.0
373659.0,521603.0,250132.0,347126.0
373597.0,521451.0,250089.0,347124.0
373550.0,521397.0,250044.0,347102.0
373572.0,521316.0,249991.0,347001.0
373483.0,521224.0,249927.0,346949.0
373456.0,521183.0,249875.0,346943.0
373418.0,521078.0,249855.0,346923.0
373364.0,521012.0,249821.0,346907.0
373310.0,521020.0,249856.0,346930.0
373309.0,520964.0,249864.0,346913.0
373287.0,520932.0,249921.0,346939.0
373248.0,520927.0,250059.0,346957.0
373239.0,520929.0,250267.0,347098.0
373210.0,520975.0,250570.0,347268.0
373264.0,521053.0,250776.0,347379.0
373253.0,521111.0,250972.0,347548.0
373200.0,521191.0,251212.0,347651.0
373241.0,521286.0,251387.0,347740.0
373256.0,521300.0,251503.0,347807.0
373255.0,521366.0,251664.0,347954.0
373222.0,521383.0,251842.0,348031.0
373242.0,521521.0,252022.0,348070.0
373243.0,521574.0,252185.0,348213.0
373270.0,521610.0,252408.0,348285.0
373301.0,521728.0,252601.0,348440.0
373355.0,521831.0,252773.0,348469.0
373362.0,522015.0,252950.0,348543.0
373412.0,522155.0,253228.0,348613.0
373412.0,522341.0,253450.0,348704.0
373523.0,522575.0,253646.0,348785.0
373597.0,522707.0,253879.0,348883.0
373584.0,522933.0,254075.0,348989.0
373656.0,523058.0,254240.0,349093.0
373724.0,523183.0,254349.0,349102.0
373766.0,523347.0,254387.0,349172.0
373754.0,523412.0,254373.0,349146.0
373846.0,523452.0,254412.0,349213.0
373874.0,523540.0,254381.0,349147.0
373930.0,523618.0,254343.0,349126.0
373960.0,523577.0,254339.0,349127.0
373956.0,523644.0,254259.0,349107.0
373997.0,523617.0,254224.0,349087.0
374007.0,523636.0,254204.0,349085.0
374034.0,523704.0,254180.0,349089.0
374029.0,523703.0,254140.0,349062.0
374028.0,523767.0,254096.0,349061.0
374072.0,523747.0,254124.0,349066.0
374108.0,523770.0,254074.0,349057.0
374163.0,523743.0,253998.0,349034.0
374137.0,523825.0,254009.0,349041.0
374152.0,523853.0,253941.0,349025.0
374148.0,523756.0,253814.0,348933.0
374160.0,523719.0,253758.0,348934.0
374158.0,523693.0,253633.0,348859.0
374150.0,523659.0,253533.0,348842.0
374201.0,523719.0,253443.0,348791.0
374119.0,523607.0,253355.0,348698.0
374164.0,523494.0,253269.0,348700.0
374101.0,523540.0,253259.0,348652.0
374141.0,523424.0,253157.0,348577.0
374084.0,523379.0,253078.0,348572.0
374056.0,523267.0,253018.0,348525.0
374014.0,523218.0,252977.0,348469.0
374014.0,523079.0,252895.0,348444.0
373942.0,522991.0,252824.0,348432.0
373887.0,522927.0,252773.0,348363.0
373857.0,522821.0,252732.0,348332.0
373802.0,522718.0,252660.0,348342.0
373805.0,522699.0,252599.0,348279.0
373729.0,522634.0,252605.0,348243.0
373659.0,522616.0,252573.0,348267.0
373635.0,522506.0,252518.0,348217.0
373608.0,522421.0,252524.0,348228.0
373545.0,522342.0,252458.0,348261.0
373519.0,522322.0,252449.0,348196.0
373515.0,522301.0,252439.0,348182.0
373494.0,522159.0,252401.0,348153.0
373423.0,522148.0,252370.0,348145.0
373406.0,522123.0,252366.0,348127.0
373325.0,522059.0,252328.0,348151.0
373321.0,521965.0,252350.0,348097.0
373292.0,521937.0,252303.0,348129.0
373276.0,521892.0,252291.0,348142.0
373221.0,521859.0,252297.0,348121.0
373207.0,521814.0,252254.0,348122.0
373205.0,521751.0,252284.0,348117.0
373158.0,521750.0,252257.0,348123.0
373125.0,521706.0,252229.0,348083.0
373046.0,521645.0,252172.0,348066.0
373085.0,521575.0,252178.0,348063.0
373013.0,521510.0,252094.0,347992.0
372995.0,521476.0,252031.0,347925.0
372935.0,521294.0,251962.0,347935.0
372920.0,521326.0,251895.0,347946.0
372904.0,521246.0,251881.0,347892.0
372812.0,521134.0,251818.0,347844.0
372794.0,521100.0,251779.0,347910.0
372726.0,521078.0,251759.0,347906.0
372710.0,520952.0,251755.0,347895.0
372684.0,520911.0,251749.0,347893.0
372679.0,520840.0,251726.0,347893.0
372642.0,520787.0,251731.0,347872.0
372605.0,520799.0,251691.0,347836.0
372561.0,520751.0,251680.0,347856.0
372536.0,520688.0,251629.0,347857.0
372542.0,520603.0,251639.0,347844.0
372528.0,520618.0,251577.0,347896.0
372466.0,520581.0,251604.0,347863.0
372470.0,520548.0,251588.0,347827.0
372433.0,520495.0,251557.0,347871.0
372411.0,520463.0,251582.0,347887.0
372419.0,520532.0,251574.0,347835.0
372367.0,520438.0,251560.0,347847.0
372364.0,520432.0,251557.0,347835.0
372390.0,520336.0,251504.0,347831.0
372336.0,520328.0,251448.0,347831.0
372305.0,520294.0,251462.0,347856.0
372293.0,520259.0,251447.0,347823.0
372317.0,520263.0,251492.0,347872.0
372238.0,520280.0,251463.0,347850.0
372211.0,520239.0,251506.0,347912.0
372279.0,520248.0,251540.0,347899.0
372217.0,520237.0,251502.0,347880.0
372213.0,520198.0,251513.0,347870.0
372181.0,520167.0,251521.0,347911.0
372250.0,520125.0,251557.0,347914.0
372190.0,520196.0,251558.0,347939.0
372150.0,520129.0,251571.0,347942.0
372140.0,520105.0,251583.0,347973.0
372123.0,520158.0,251628.0,347985.0
372148.0,520133.0,251623.0,348002.0
372149.0,520160.0,251607.0,348005.0
372119.0,520112.0,251608.0,347979.0
372101.0,520152.0,251623.0,348008.0
372098.0,520111.0,251609.0,347984.0
372076.0,520075.0,251575.0,348021.0
372027.0,520082.0,251570.0,348012.0
372159.0,520141.0,251594.0,348025.0
372131.0,520079.0,251567.0,348050.0
372088.0,520045.0,251567.0,348015.0
372097.0,519986.0,251533.0,348005.0
372077.0,520002.0,251542.0,347953.0
372033.0,520007.0,251515.0,347963.0
372026.0,519849.0,251537.0,347886.0
371945.0,519963.0,251557.0,347904.0
371905.0,519837.0,251538.0,347933.0
371891.0,519765.0,251585.0,347842.0
371845.0,519765.0,251582.0,347927.0
371850.0,519693.0,251632.0,347921.0
371793.0,519668.0,251691.0,347927.0
371785.0,519699.0,251698.0,347941.0
371708.0,519667.0,251711.0,347947.0
371687.0,519664.0,251762.0,347957.0
371696.0,519617.0,251711.0,348013.0
371632.0,519590.0,251737.0,348009.0
371635.0,519624.0,251769.0,347989.0
371617.0,519567.0,251803.0,347965.0
371566.0,519555.0,251786.0,347980.0
371543.0,519554.0,251824.0,348008.0
371527.0,519519.0,251875.0,348052.0
371507.0,519586.0,251918.0,348039.0
371515.0,519557.0,251988.0,348073.0
371496.0,519566.0,251988.0,348089.0
371543.0,519579.0,252041.0,348115.0
