376433.0,523998.0,254754.0,349796.0
376292.0,523629.0,254237.0,349572.0
376212.0,523409.0,253945.0,349453.0
376178.0,523174.0,253706.0,349355.0
376086.0,523021.0,253475.0,349278.0
376063.0,522752.0,253277.0,349186.0
375977.0,522641.0,253008.0,349085.0
375928.0,522439.0,252754.0,348962.0
375844.0,522232.0,252494.0,348864.0
375755.0,522095.0,252357.0,348731.0
375735.0,521999.0,252096.0,348715.0
375654.0,521806.0,251992.0,348642.0
375619.0,521711.0,251994.0,348627.0
375569.0,521612.0,252003.0,348673.0
375460.0,521490.0,252040.0,348697.0
375431.0,521403.0,252018.0,348689.0
375332.0,521333.0,251960.0,348628.0
375282.0,521150.0,251842.0,348615.0
375222.0,521105.0,251711.0,348549.0
375145.0,520894.0,251639.0,348461.0
375055.0,520679.0,251489.0,348428.0
374942.0,520549.0,251390.0,348345.0
374917.0,520407.0,251341.0,348325.0
374861.0,520246.0,251288.0,348285.0
374758.0,520160.0,251219.0,348314.0
374722.0,520093.0,251162.0,348244.0
374633.0,519954.0,251127.0,348244.0
374562.0,519831.0,250992.0,348214.0
374507.0,519771.0,250924.0,348217.0
374440.0,519610.0,250882.0,348148.0
374364.0,519515.0,250790.0,348108.0
374317.0,519390.0,250709.0,348087.0
374234.0,519267.0,250590.0,348057.0
374269.0,519117.0,250497.0,347937.0
374175.0,519111.0,250382.0,347857.0
374083.0,518941.0,250278.0,347790.0
374068.0,518824.0,250182.0,347735.0
373993.0,518781.0,250067.0,347690.0
373940.0,518648.0,249926.0,347669.0
373900.0,518516.0,249803.0,347536.0
373868.0,518456.0,249695.0,347441.0
373795.0,518347.0,249540.0,347342.0
373787.0,518244.0,249391.0,347226.0
373724.0,518170.0,249210.0,347148.0
373683.0,518055.0,249067.0,347118.0
373668.0,517936.0,248969.0,347027.0
373616.0,517841.0,248917.0,346983.0
373618.0,517797.0,248883.0,346958.0
373546.0,517692.0,248846.0,346931.0
373508.0,517642.0,248806.0,346927.0
373504.0,517567.0,248809.0,346935.0
373449.0,517493.0,248806.0,346889.0
373416.0,517549.0,248730.0,346861.0
373383.0,517344.0,248674.0,346885.0
373336.0,517324.0,248662.0,346837.0
373363.0,517255.0,248625.0,346835.0
373309.0,517199.0,248568.0,346770.0
373257.0,517089.0,248544.0,346756.0
373215.0,517083.0,248537.0,346816.0
373194.0,517027.0,248492.0,346774.0
373196.0,516967.0,248460.0,346805.0
373123.0,516908.0,248403.0,346762.0
373105.0,516858.0,248386.0,346702.0
373065.0,516821.0,248412.0,346730.0
373065.0,516785.0,248374.0,346684.0
373024.0,516679.0,248375.0,346751.0
373007.0,516756.0,248375.0,346669.0
373006.0,516636.0,248399.0,346720.0
372957.0,516673.0,248367.0,346698.0
372934.0,516643.0,248354.0,346686.0
372911.0,516579.0,248346.0,346699.0
372865.0,516647.0,248336.0,346672.0
372854.0,516521.0,248333.0,346684.0
372830.0,516489.0,248348.0,346713.0
372897.0,516470.0,248327.0,346698.0
372829.0,516456.0,248297.0,346670.0
372800.0,516429.0,248249.0,346671.0
372760.0,516298.0,248193.0,346647.0
372808.0,516341.0,248129.0,346591.0
372748.0,516308.0,248066.0,346510.0
372689.0,516212.0,247955.0,346458.0
372710.0,516194.0,247857.0,346369.0
372697.0,516140.0,247730.0,346305.0
372695.0,516102.0,247668.0,346180.0
372626.0,516095.0,247502.0,346125.0
372658.0,515939.0,247462.0,346042.0
372652.0,515987.0,247374.0,345936.0
372722.0,515945.0,247293.0,345922.0
372626.0,515923.0,247264.0,345934.0
372683.0,516022.0,247228.0,345904.0
372669.0,515915.0,247228.0,345928.0
372689.0,515972.0,247224.0,345857.0
372694.0,515981.0,247263.0,345937.0
372722.0,516043.0,247324.0,345925.0
372710.0,516036.0,247417.0,345953.0
372673.0,516046.0,247418.0,345991.0
372654.0,516046.0,247438.0,346030.0
372705.0,516033.0,247594.0,346061.0
372665.0,516053.0,247600.0,346146.0
372665.0,516006.0,247620.0,346143.0
372673.0,515967.0,247641.0,346186.0
372652.0,515994.0,247634.0,346165.0
372652.0,515994.0,247607.0,346150.0
372625.0,515903.0,247615.0,346122.0
372684.0,515945.0,247496.0,346078.0
372669.0,515878.0,247473.0,346043.0
372600.0,515844.0,247428.0,346012.0
372674.0,515863.0,247396.0,345998.0
372653.0,515820.0,247364.0,345999.0
372673.0,515829.0,247404.0,346029.0
372647.0,515866.0,247380.0,346022.0
372656.0,515839.0,247375.0,346037.0
372633.0,515834.0,247400.0,346006.0
372674.0,515735.0,247349.0,345954.0
372672.0,515778.0,247311.0,345955.0
372681.0,515755.0,247294.0,345939.0
372666.0,515736.0,247224.0,345879.0
372682.0,515681.0,247184.0,345878.0
372652.0,515770.0,247152.0,345887.0
372657.0,515746.0,247114.0,345852.0
372638.0,515717.0,247088.0,345833.0
372656.0,515691.0,247032.0,345799.0
372661.0,515629.0,247005.0,345760.0
372647.0,515647.0,246931.0,345745.0
372631.0,515644.0,246943.0,345775.0
372643.0,515610.0,246948.0,345788.0
372675.0,515667.0,246935.0,345734.0
372672.0,515620.0,246936.0,345760.0
372664.0,515599.0,246906.0,345767.0
372678.0,515577.0,246880.0,345714.0
372700.0,515574.0,246776.0,345709.0
372682.0,515522.0,246739.0,345664.0
372679.0,515536.0,246680.0,345639.0
372630.0,515495.0,246593.0,345654.0
372632.0,515410.0,246466.0,345612.0
372644.0,515422.0,246354.0,345543.0
372672.0,515345.0,246204.0,345497.0
372643.0,515302.0,246090.0,345420.0
372589.0,515276.0,246052.0,345480.0
372637.0,515243.0,245984.0,345377.0
372643.0,515182.0,245874.0,345329.0
372598.0,515159.0,245812.0,345308.0
372614.0,515177.0,245761.0,345267.0
372652.0,515143.0,245683.0,345201.0
372609.0,515150.0,245643.0,345213.0
372610.0,515074.0,245584.0,345130.0
372631.0,515039.0,245521.0,345120.0
372637.0,515080.0,245482.0,345050.0
372656.0,515066.0,245442.0,345072.0
372648.0,514993.0,245413.0,344991.0
372600.0,515057.0,245401.0,344995.0
372637.0,515011.0,245344.0,344964.0
372668.0,515038.0,245267.0,344927.0
372652.0,515031.0,245180.0,344864.0
372646.0,514994.0,245134.0,344781.0
372653.0,514965.0,245022.0,344720.0
372696.0,515001.0,244924.0,344639.0
372720.0,514966.0,244837.0,344462.0
372679.0,515004.0,244751.0,344413.0
372815.0,515011.0,244672.0,344320.0
372796.0,515051.0,244647.0,344267.0
372860.0,515125.0,244688.0,344234.0
372852.0,515179.0,244737.0,344241.0
372948.0,515291.0,244722.0,344190.0
372994.0,515403.0,244730.0,344158.0
373023.0,515365.0,244657.0,344143.0
373078.0,515483.0,244571.0,344084.0
373129.0,515615.0,244533.0,343994.0
373210.0,515658.0,244444.0,343961.0
373234.0,515741.0,244323.0,343934.0
373343.0,515713.0,244265.0,343872.0
373336.0,515794.0,244180.0,343819.0
373366.0,515843.0,244074.0,343699.0
373394.0,515858.0,243938.0,343625.0
373449.0,515849.0,243888.0,343591.0
373436.0,515908.0,243840.0,343568.0
373480.0,515838.0,243861.0,343533.0
373448.0,515862.0,243828.0,343526.0
373456.0,515917.0,243774.0,343459.0
373553.0,515887.0,243740.0,343493.0
373507.0,515901.0,243685.0,343428.0
373498.0,515955.0,243666.0,343456.0
373546.0,515920.0,243613.0,343395.0
373615.0,515976.0,243614.0,343362.0
373622.0,515986.0,243558.0,343431.0
373647.0,516045.0,243541.0,343368.0
373622.0,515991.0,243476.0,343387.0
373662.0,516033.0,243371.0,343348.0
373685.0,516054.0,243265.0,343297.0
373687.0,516006.0,243186.0,343257.0
373733.0,516028.0,242994.0,343158.0
373671.0,515948.0,242778.0,343080.0
373718.0,515905.0,242599.0,342954.0
373677.0,515897.0,242437.0,342940.0
373602.0,515827.0,242270.0,342835.0
373654.0,515739.0,242131.0,342788.0
373606.0,515697.0,241940.0,342733.0
373598.0,515591.0,241784.0,342636.0
373530.0,515550.0,241756.0,342551.0
373479.0,515477.0,241642.0,342568.0
373448.0,515420.0,241584.0,342535.0
373465.0,515302.0,241499.0,342510.0
373413.0,515259.0,241426.0,342425.0
373350.0,515171.0,241288.0,342317.0
373351.0,515053.0,241214.0,342296.0
373277.0,515029.0,241148.0,342259.0
373265.0,514968.0,241105.0,342236.0
373200.0,514895.0,241053.0,342182.0
373185.0,514825.0,241042.0,342190.0
373145.0,514758.0,241014.0,342188.0
373127.0,514671.0,240978.0,342101.0
373094.0,514629.0,240941.0,342069.0
373066.0,514590.0,240910.0,342022.0
373031.0,514526.0,240853.0,341992.0
373047.0,514464.0,240819.0,342021.0
373011.0,514436.0,240810.0,342002.0
372984.0,514396.0,240786.0,341936.0
372969.0,514365.0,240769.0,341941.0
372982.0,514320.0,240763.0,341897.0
372962.0,514267.0,240745.0,341874.0
372964.0,514237.0,240683.0,341806.0
372970.0,514275.0,240663.0,341816.0
372945.0,514227.0,240689.0,341810.0
372925.0,514198.0,240639.0,341812.0
372896.0,514181.0,240631.0,341843.0
372902.0,514141.0,240662.0,341799.0
372921.0,514145.0,240634.0,341756.0
372915.0,514165.0,240639.0,341797.0
372892.0,514126.0,240651.0,341783.0
372917.0,514133.0,240629.0,341789.0
372862.0,514077.0,240601.0,341788.0
372881.0,514096.0,240599.0,341755.0
372870.0,514111.0,240616.0,341820.0
372894.0,514035.0,240588.0,341797.0
372876.0,514071.0,240606.0,341856.0
372859.0,514078.0,240660.0,341865.0
372857.0,514064.0,240704.0,341913.0
372932.0,514058.0,240721.0,341963.0
372848.0,514045.0,240776.0,341971.0
372898.0,514056.0,240715.0,341965.0
372912.0,514034.0,240805.0,342022.0
372862.0,514054.0,240776.0,342025.0
372910.0,514039.0,240776.0,341985.0
372903.0,514104.0,240786.0,342015.0
372876.0,514081.0,240785.0,342012.0
372879.0,514101.0,240773.0,342030.0
372881.0,514088.0,240808.0,342065.0
372893.0,514053.0,240832.0,342002.0
372866.0,514121.0,240819.0,341998.0
372939.0,514114.0,240863.0,342062.0
372964.0,514094.0,240885.0,342061.0
372941.0,514105.0,240897.0,342107.0
372944.0,514101.0,240934.0,342104.0
373006.0,514108.0,241011.0,342053.0
372933.0,514073.0,241046.0,342085.0
372929.0,514097.0,241122.0,342113.0
372929.0,514092.0,241128.0,342100.0
372931.0,514040.0,241183.0,342133.0
372910.0,514022.0,241189.0,342133.0
372910.0,513993.0,241207.0,342189.0
372925.0,513980.0,241226.0,342180.0
372885.0,514006.0,241285.0,342186.0
372865.0,513927.0,241253.0,342194.0
372834.0,513935.0,241285.0,342218.0
372910.0,513917.0,241269.0,342216.0
372846.0,513867.0,241235.0,342218.0
372876.0,513890.0,241249.0,342234.0
372854.0,513855.0,241243.0,342206.0
372828.0,513875.0,241247.0,342220.0
372876.0,513877.0,241272.0,342239.0
372839.0,513858.0,241264.0,342259.0
372829.0,513827.0,241285.0,342222.0
372873.0,513797.0,241267.0,342199.0
372795.0,513882.0,241261.0,342241.0
372808.0,513831.0,241293.0,342215.0
372822.0,513808.0,241335.0,342252.0
372804.0,513874.0,241331.0,342286.0
372813.0,513872.0,241369.0,342250.0
372823.0,513820.0,241363.0,342261.0
372820.0,513866.0,241387.0,342319.0
372770.0,513793.0,241374.0,342274.0
372839.0,513849.0,241363.0,342292.0
372815.0,513769.0,241313.0,342310.0
372755.0,513748.0,241242.0,342205.0
372751.0,513750.0,241171.0,342222.0
372726.0,513684.0,241126.0,342201.0
372699.0,513669.0,241071.0,342147.0
372695.0,513603.0,241071.0,342112.0
372658.0,513621.0,241033.0,342129.0
372636.0,513543.0,241053.0,342150.0
372591.0,513494.0,241108.0,342172.0
372608.0,513499.0,241149.0,342240.0
372546.0,513490.0,241264.0,342304.0
372628.0,513549.0,241447.0,342397.0
372566.0,513606.0,241633.0,342570.0
372588.0,513601.0,241857.0,342700.0
372571.0,513675.0,242073.0,342856.0
372608.0,513700.0,242211.0,342952.0
372646.0,513739.0,242370.0,343075.0
372646.0,513762.0,242513.0,343150.0
372640.0,513894.0,242747.0,343284.0
372718.0,513955.0,242898.0,343432.0
372645.0,513962.0,243069.0,343481.0
372729.0,513949.0,243192.0,343646.0
372703.0,514058.0,243253.0,343703.0
372693.0,514037.0,243322.0,343724.0
372759.0,514112.0,243389.0,343779.0
372729.0,514130.0,243382.0,343778.0
372786.0,514134.0,243389.0,343841.0
372742.0,514172.0,243387.0,343842.0
372801.0,514201.0,243347.0,343823.0
372783.0,514170.0,243328.0,343833.0
372813.0,514205.0,243360.0,343838.0
372821.0,514233.0,243351.0,343907.0
372801.0,514242.0,243403.0,343925.0
372836.0,514245.0,243450.0,343941.0
372825.0,514303.0,243404.0,343977.0
372822.0,514268.0,243475.0,343935.0
372805.0,514315.0,243470.0,343998.0
372835.0,514292.0,243461.0,344020.0
372857.0,514398.0,243489.0,344019.0
372871.0,514373.0,243505.0,344045.0
372851.0,514403.0,243578.0,344113.0
372857.0,514416.0,243656.0,344139.0
372919.0,514471.0,243667.0,344136.0
372926.0,514536.0,243672.0,344190.0
372892.0,514507.0,243688.0,344184.0
372914.0,514527.0,243705.0,344180.0
372930.0,514499.0,243727.0,344187.0
372909.0,514574.0,243754.0,344206.0
372907.0,514539.0,243764.0,344198.0
372923.0,514555.0,243832.0,344218.0
372878.0,514482.0,243895.0,344259.0
372829.0,514483.0,243919.0,344291.0
372885.0,514504.0,243947.0,344276.0
372883.0,514408.0,243987.0,344243.0
372805.0,514389.0,243985.0,344267.0
372775.0,514380.0,243987.0,344244.0
372801.0,514413.0,244006.0,344316.0
372739.0,514350.0,244083.0,344295.0
372740.0,514374.0,244112.0,344323.0
372696.0,514351.0,244121.0,344351.0
372722.0,514354.0,244151.0,344398.0
372690.0,514308.0,244170.0,344375.0
372676.0,514322.0,244123.0,344350.0
372690.0,514273.0,244118.0,344344.0
372641.0,514249.0,244105.0,344280.0
372631.0,514252.0,244107.0,344292.0
372595.0,514267.0,244111.0,344335.0
372639.0,514237.0,244159.0,344345.0
372543.0,514240.0,244207.0,344390.0
372583.0,514289.0,244228.0,344411.0
372528.0,514212.0,244230.0,344444.0
372528.0,514249.0,244205.0,344446.0
372520.0,514241.0,244222.0,344416.0
372529.0,514202.0,244211.0,344407.0
372495.0,514151.0,244200.0,344419.0
372485.0,514179.0,244188.0,344349.0
372430.0,514152.0,244147.0,344374.0
372386.0,514160.0,244101.0,344346.0
372404.0,514092.0,244054.0,344340.0
372425.0,514019.0,244043.0,344283.0
372387.0,514058.0,243998.0,344309.0
372312.0,514023.0,243945.0,344225.0
372360.0,513939.0,243922.0,344214.0
372303.0,513905.0,243887.0,344141.0
372329.0,513947.0,243850.0,344193.0
372325.0,513916.0,243860.0,344173.0
372261.0,513846.0,243817.0,344098.0
372272.0,513918.0,243807.0,344136.0
372275.0,513891.0,243811.0,344128.0
372252.0,513838.0,243758.0,344119.0
372198.0,513869.0,243734.0,344132.0
372279.0,513852.0,243751.0,344160.0
372229.0,513846.0,243736.0,344211.0
372259.0,513832.0,243751.0,344217.0
372251.0,513913.0,243744.0,344192.0
372260.0,513904.0,243745.0,344189.0
372231.0,513875.0,243756.0,344190.0
372233.0,513899.0,243771.0,344180.0
372233.0,513833.0,243723.0,344206.0
372194.0,513881.0,243704.0,344186.0
372210.0,513819.0,243688.0,344157.0
372189.0,513836.0,243686.0,344159.0
372220.0,513876.0,243628.0,344109.0
372190.0,513893.0,243594.0,344143.0
372203.0,513817.0,243593.0,344089.0
372167.0,513779.0,243589.0,344107.0
372165.0,513835.0,243551.0,344085.0
372176.0,513805.0,243522.0,344072.0
372142.0,513814.0,243514.0,344047.0
372183.0,513846.0,243453.0,344022.0
372187.0,513813.0,243472.0,344008.0
372152.0,513785.0,243436.0,344046.0
372154.0,513777.0,243399.0,343985.0
372154.0,513807.0,243357.0,343952.0
372146.0,513774.0,243338.0,343916.0
372155.0,513783.0,243278.0,343883.0
372110.0,513742.0,243234.0,343813.0
372129.0,513751.0,243205.0,343801.0
372106.0,513729.0,243163.0,343783.0
372140.0,513697.0,243192.0,343776.0
372110.0,513708.0,243190.0,343788.0
372121.0,513708.0,243219.0,343742.0
372167.0,513771.0,243244.0,343777.0
372158.0,513769.0,243259.0,343783.0
372144.0,513739.0,243329.0,343773.0
372128.0,513735.0,243345.0,343832.0
372093.0,513667.0,243349.0,343831.0
372084.0,513709.0,243375.0,343781.0
372022.0,513621.0,243359.0,343766.0
372007.0,513553.0,243367.0,343737.0
371963.0,513522.0,243351.0,343738.0
371919.0,513507.0,243364.0,343763.0
371856.0,513406.0,243409.0,343758.0
371844.0,513443.0,243435.0,343788.0
371807.0,513300.0,243381.0,343782.0
371840.0,513336.0,243375.0,343805.0
371751.0,513298.0,243367.0,343753.0
371690.0,513211.0,243309.0,343732.0
371693.0,513193.0,243335.0,343703.0
371652.0,513136.0,243292.0,343711.0
371665.0,513133.0,243271.0,343673.0
371559.0,513124.0,243282.0,343704.0
371593.0,513011.0,243277.0,343678.0
371517.0,513043.0,243243.0,343668.0
371529.0,513045.0,243235.0,343695.0
371482.0,512984.0,243269.0,343677.0
371461.0,512961.0,243263.0,343711.0
371432.0,512901.0,243253.0,343665.0
371403.0,512889.0,243272.0,343683.0
371371.0,512911.0,243276.0,343642.0
371357.0,512801.0,243306.0,343661.0
371376.0,512799.0,243352.0,343684.0
371295.0,512803.0,243362.0,343702.0
371309.0,512797.0,243367.0,343702.0
371253.0,512765.0,243381.0,343781.0
371248.0,512740.0,243485.0,343770.0
371229.0,512714.0,243590.0,343822.0
371260.0,512732.0,243708.0,343870.0
371230.0,512765.0,243849.0,343982.0
371221.0,512819.0,244108.0,344162.0
371205.0,512828.0,244357.0,344236.0
371230.0,512866.0,244601.0,344466.0
371220.0,512939.0,244845.0,344519.0
371221.0,513043.0,245076.0,344637.0
371250.0,513104.0,245239.0,344684.0
371241.0,513207.0,245409.0,344840.0
371294.0,513274.0,245570.0,344890.0
371297.0,513270.0,245673.0,344960.0
371290.0,513391.0,245772.0,344978.0
371326.0,513413.0,245799.0,344991.0
371305.0,513406.0,245799.0,345017.0
371376.0,513480.0,245830.0,344990.0
371361.0,513601.0,245919.0,345075.0
371445.0,513564.0,245983.0,345096.0
371455.0,513660.0,246066.0,345128.0
371447.0,513706.0,246099.0,345174.0
371539.0,513791.0,246110.0,345174.0
371555.0,513852.0,246149.0,345147.0
371532.0,513868.0,246121.0,345166.0
371619.0,513924.0,246102.0,345156.0
371590.0,513992.0,246133.0,345162.0
371613.0,514010.0,246112.0,345114.0
371647.0,514040.0,246061.0,345103.0
371682.0,514083.0,245961.0,345084.0
371676.0,514093.0,245931.0,344999.0
371684.0,514122.0,245821.0,344968.0
371720.0,514086.0,245744.0,344905.0
371713.0,514140.0,245733.0,344907.0
371715.0,514223.0,245663.0,344865.0
371754.0,514175.0,245644.0,344835.0
371702.0,514193.0,245626.0,344821.0
371767.0,514256.0,245628.0,344847.0
371790.0,514275.0,245631.0,344829.0
371799.0,514334.0,245660.0,344911.0
371826.0,514403.0,245699.0,344910.0
371838.0,514359.0,245702.0,344895.0
371850.0,514449.0,245716.0,344940.0
371804.0,514478.0,245719.0,344885.0
371867.0,514513.0,245691.0,344926.0
371804.0,514530.0,245710.0,344888.0
371869.0,514511.0,245689.0,344897.0
371895.0,514520.0,245762.0,344920.0
371883.0,514539.0,245758.0,344883.0
371864.0,514520.0,245797.0,344849.0
371853.0,514548.0,245811.0,344910.0
371897.0,514590.0,245859.0,344956.0
371851.0,514568.0,245944.0,344957.0
371814.0,514628.0,246076.0,345019.0
371812.0,514640.0,246213.0,345108.0
371813.0,514674.0,246430.0,345284.0
371777.0,514760.0,246628.0,345372.0
371812.0,514814.0,246847.0,345479.0
371854.0,514902.0,247009.0,345577.0
371856.0,514938.0,247143.0,345651.0
371871.0,514995.0,247242.0,345765.0
371843.0,515082.0,247382.0,345813.0
371908.0,515245.0,247497.0,345901.0
371898.0,515267.0,247671.0,345928.0
371921.0,515369.0,247744.0,346004.0
371940.0,515423.0,247835.0,346058.0
371977.0,515473.0,247894.0,346077.0
372076.0,515560.0,247980.0,346108.0
372046.0,515722.0,248011.0,346138.0
372126.0,515643.0,248019.0,346148.0
