360543.0,489461.0,208622.0,315059.0
360472.0,489533.0,208705.0,315138.0
360511.0,489478.0,208697.0,315102.0
360503.0,489537.0,208700.0,315038.0
360490.0,489503.0,208707.0,315086.0
360441.0,489492.0,208651.0,314994.0
360467.0,489426.0,208477.0,314847.0
360414.0,489336.0,208237.0,314599.0
360395.0,489196.0,208014.0,314312.0
360317.0,489158.0,207817.0,314109.0
360288.0,488991.0,207605.0,313788.0
360248.0,488898.0,207410.0,313570.0
360246.0,488812.0,207263.0,313350.0
360150.0,488857.0,207116.0,313181.0
360162.0,488822.0,207055.0,313131.0
360204.0,488878.0,206996.0,313133.0
360231.0,488940.0,206996.0,313138.0
360276.0,488980.0,207041.0,313063.0
360343.0,489177.0,207110.0,313024.0
360410.0,489188.0,207201.0,313042.0
360488.0,489270.0,207274.0,313064.0
360472.0,489439.0,207357.0,313152.0
360597.0,489568.0,207397.0,313192.0
360639.0,489712.0,207360.0,313292.0
360772.0,489808.0,207264.0,313530.0
360848.0,489914.0,207109.0,313724.0
360898.0,490009.0,206902.0,313948.0
361004.0,490155.0,206708.0,314152.0
361063.0,490255.0,206471.0,314350.0
361135.0,490387.0,206253.0,314576.0
361202.0,490492.0,206056.0,314730.0
361301.0,490596.0,205885.0,314946.0
361399.0,490748.0,205744.0,315137.0
361462.0,490897.0,205677.0,315375.0
361521.0,491091.0,205488.0,315548.0
361673.0,491191.0,205435.0,315696.0
361724.0,491322.0,205279.0,315770.0
361786.0,491387.0,205170.0,315807.0
361871.0,491514.0,205018.0,315798.0
361927.0,491548.0,204899.0,315756.0
361910.0,491628.0,204780.0,315766.0
362005.0,491677.0,204709.0,315730.0
362022.0,491776.0,204656.0,315808.0
362061.0,491832.0,204622.0,315803.0
362133.0,491809.0,204582.0,315777.0
362109.0,491862.0,204541.0,315821.0
362119.0,491917.0,204515.0,315933.0
362176.0,491880.0,204591.0,315993.0
362222.0,491938.0,204641.0,316141.0
362173.0,491928.0,204721.0,316305.0
362240.0,491928.0,204787.0,316398.0
362254.0,491841.0,204931.0,316498.0
362249.0,491889.0,205082.0,316649.0
362251.0,491866.0,205182.0,316692.0
362229.0,491903.0,205329.0,316796.0
362243.0,491745.0,205479.0,316893.0
362229.0,491827.0,205658.0,317026.0
362257.0,491804.0,205830.0,317128.0
362177.0,491779.0,206000.0,317166.0
362224.0,491776.0,206185.0,317275.0
362229.0,491759.0,206372.0,317295.0
362188.0,491751.0,206503.0,317362.0
362196.0,491740.0,206705.0,317438.0
362221.0,491702.0,206898.0,317545.0
362205.0,491774.0,207089.0,317614.0
362206.0,491736.0,207343.0,317795.0
362237.0,491753.0,207549.0,317862.0
362235.0,491757.0,207807.0,318017.0
362258.0,491795.0,208019.0,318189.0
362244.0,491817.0,208236.0,318318.0
362283.0,491858.0,208471.0,318463.0
362287.0,491909.0,208717.0,318639.0
362272.0,491945.0,208883.0,318797.0
362285.0,491934.0,209105.0,318963.0
362307.0,491943.0,209318.0,319079.0
362336.0,492035.0,209519.0,319205.0
362368.0,491998.0,209706.0,319365.0
362384.0,492032.0,209917.0,319514.0
362394.0,492159.0,210107.0,319690.0
362450.0,492121.0,210306.0,319841.0
362472.0,492180.0,210508.0,320026.0
362515.0,492240.0,210675.0,320161.0
362478.0,492281.0,210882.0,320333.0
362491.0,492267.0,211106.0,320518.0
362526.0,492287.0,211227.0,320599.0
362501.0,492301.0,211424.0,320688.0
362516.0,492279.0,211528.0,320840.0
362490.0,492271.0,211670.0,320956.0
362546.0,492334.0,211850.0,321204.0
362577.0,492334.0,212004.0,321385.0
362561.0,492406.0,212196.0,321536.0
362579.0,492472.0,212440.0,321767.0
362638.0,492477.0,212582.0,321947.0
362622.0,492489.0,212730.0,322079.0
362585.0,492528.0,212876.0,322181.0
362626.0,492628.0,212920.0,322299.0
362677.0,492588.0,212968.0,322329.0
362690.0,492586.0,212949.0,322327.0
362715.0,492649.0,212976.0,322317.0
362724.0,492671.0,212981.0,322268.0
362721.0,492689.0,212949.0,322276.0
362729.0,492647.0,212958.0,322226.0
362696.0,492643.0,212903.0,322122.0
362693.0,492599.0,212828.0,322011.0
362736.0,492604.0,212759.0,321933.0
362688.0,492573.0,212718.0,321852.0
362685.0,492543.0,212658.0,321769.0
362663.0,492503.0,212610.0,321713.0
362621.0,492429.0,212572.0,321602.0
362649.0,492459.0,212515.0,321524.0
362617.0,492427.0,212501.0,321544.0
362665.0,492378.0,212480.0,321503.0
362586.0,492375.0,212498.0,321515.0
362624.0,492337.0,212516.0,321544.0
362641.0,492366.0,212538.0,321554.0
362649.0,492369.0,212585.0,321590.0
362679.0,492360.0,212615.0,321640.0
362652.0,492375.0,212677.0,321646.0
362685.0,492407.0,212727.0,321699.0
362709.0,492444.0,212847.0,321789.0
362751.0,492463.0,212866.0,321872.0
362767.0,492453.0,212929.0,321963.0
362798.0,492486.0,213055.0,322092.0
362827.0,492596.0,213134.0,322139.0
362826.0,492654.0,213245.0,322273.0
362863.0,492742.0,213371.0,322415.0
362976.0,492814.0,213443.0,322487.0
363027.0,492921.0,213527.0,322563.0
363067.0,492975.0,213552.0,322631.0
363109.0,493055.0,213616.0,322714.0
363166.0,493158.0,213649.0,322761.0
363288.0,493207.0,213704.0,322820.0
363274.0,493335.0,213693.0,322866.0
363318.0,493305.0,213711.0,322896.0
363317.0,493439.0,213770.0,323006.0
363396.0,493514.0,213794.0,323088.0
363444.0,493529.0,213854.0,323150.0
363523.0,493566.0,213875.0,323201.0
363526.0,493614.0,213901.0,323244.0
363544.0,493624.0,213926.0,323311.0
363583.0,493686.0,213982.0,323332.0
363577.0,493776.0,213978.0,323384.0
363649.0,493772.0,213983.0,323363.0
363717.0,493796.0,213958.0,323380.0
363681.0,493847.0,213921.0,323400.0
363722.0,493830.0,213906.0,323443.0
363735.0,493882.0,213915.0,323389.0
363765.0,493974.0,213904.0,323433.0
363822.0,493966.0,213902.0,323432.0
363805.0,494000.0,213918.0,323444.0
363867.0,494028.0,213872.0,323472.0
363867.0,494084.0,213849.0,323469.0
363882.0,494142.0,213791.0,323424.0
363933.0,494121.0,213755.0,323355.0
363912.0,494138.0,213730.0,323319.0
363916.0,494174.0,213654.0,323286.0
363928.0,494109.0,213636.0,323249.0
363915.0,494091.0,213619.0,323178.0
363961.0,494040.0,213602.0,323162.0
363875.0,494054.0,213584.0,323138.0
363837.0,493959.0,213561.0,323067.0
363862.0,493935.0,213561.0,323081.0
363858.0,493915.0,213594.0,323048.0
363829.0,493898.0,213559.0,323095.0
363825.0,493911.0,213613.0,323085.0
363797.0,493896.0,213622.0,323102.0
363792.0,493879.0,213706.0,323191.0
363800.0,493815.0,213749.0,323213.0
363799.0,493804.0,213826.0,323194.0
363764.0,493894.0,213832.0,323271.0
363793.0,493871.0,213837.0,323295.0
363826.0,493847.0,213892.0,323351.0
363787.0,493813.0,213944.0,323383.0
363785.0,493859.0,213997.0,323447.0
363797.0,493887.0,214081.0,323529.0
363827.0,493866.0,214140.0,323531.0
363839.0,493935.0,214177.0,323599.0
363844.0,493962.0,214226.0,323645.0
363845.0,493932.0,214283.0,323714.0
363850.0,493930.0,214299.0,323757.0
363876.0,493965.0,214352.0,323804.0
363920.0,494077.0,214416.0,323872.0
363966.0,494038.0,214492.0,323936.0
363950.0,494051.0,214542.0,323982.0
363909.0,494072.0,214569.0,324033.0
363960.0,494173.0,214644.0,324054.0
363988.0,494142.0,214632.0,324090.0
363999.0,494193.0,214683.0,324179.0
364029.0,494184.0,214693.0,324178.0
364005.0,494240.0,214738.0,324241.0
364085.0,494233.0,214759.0,324252.0
364038.0,494305.0,214771.0,324342.0
364082.0,494323.0,214827.0,324372.0
364099.0,494320.0,214852.0,324383.0
364118.0,494324.0,214900.0,324441.0
364137.0,494314.0,214924.0,324459.0
364148.0,494397.0,214973.0,324487.0
364158.0,494411.0,214995.0,324550.0
364228.0,494482.0,214977.0,324559.0
364214.0,494516.0,215010.0,324575.0
364285.0,494499.0,215065.0,324675.0
364276.0,494538.0,215092.0,324673.0
364292.0,494644.0,215088.0,324712.0
364299.0,494631.0,215123.0,324683.0
364284.0,494608.0,215109.0,324716.0
364335.0,494705.0,215046.0,324681.0
364336.0,494704.0,215036.0,324672.0
364361.0,494729.0,215034.0,324629.0
364409.0,494826.0,215052.0,324655.0
364442.0,494804.0,215052.0,324682.0
364432.0,494829.0,215110.0,324689.0
364469.0,494866.0,215212.0,324762.0
364499.0,494880.0,215318.0,324844.0
364581.0,494962.0,215428.0,324964.0
364564.0,495024.0,215586.0,325087.0
364607.0,495094.0,215745.0,325230.0
364704.0,495174.0,215922.0,325368.0
364698.0,495279.0,216102.0,325484.0
364777.0,495339.0,216254.0,325638.0
364832.0,495459.0,216405.0,325776.0
364888.0,495516.0,216531.0,325898.0
364943.0,495604.0,216675.0,326002.0
365011.0,495705.0,216814.0,326131.0
365058.0,495847.0,216952.0,326255.0
365109.0,495934.0,217078.0,326354.0
365193.0,496051.0,217200.0,326424.0
365209.0,496142.0,217333.0,326554.0
365333.0,496285.0,217425.0,326619.0
365381.0,496371.0,217575.0,326777.0
365445.0,496452.0,217694.0,326857.0
365530.0,496590.0,217789.0,326900.0
365507.0,496659.0,217931.0,327002.0
365613.0,496817.0,218047.0,327050.0
365624.0,496794.0,218125.0,327111.0
365663.0,496797.0,218177.0,327149.0
365676.0,496905.0,218215.0,327142.0
365737.0,496990.0,218196.0,327096.0
365728.0,496958.0,218249.0,327109.0
365801.0,497045.0,218258.0,327114.0
365792.0,497072.0,218311.0,327179.0
365786.0,497049.0,218372.0,327125.0
365836.0,497089.0,218418.0,327211.0
365785.0,497152.0,218486.0,327261.0
365804.0,497177.0,218532.0,327308.0
365895.0,497227.0,218619.0,327380.0
365879.0,497293.0,218696.0,327399.0
365991.0,497346.0,218758.0,327471.0
365945.0,497334.0,218753.0,327419.0
366008.0,497378.0,218786.0,327446.0
366026.0,497401.0,218823.0,327457.0
366035.0,497527.0,218853.0,327479.0
366054.0,497575.0,218845.0,327482.0
366109.0,497609.0,218882.0,327528.0
366120.0,497645.0,218881.0,327456.0
366141.0,497694.0,218837.0,327452.0
366190.0,497743.0,218811.0,327403.0
366224.0,497779.0,218746.0,327358.0
366226.0,497806.0,218683.0,327246.0
366242.0,497812.0,218577.0,327219.0
366280.0,497832.0,218513.0,327139.0
366276.0,497914.0,218463.0,327085.0
366305.0,497948.0,218406.0,327049.0
366334.0,497951.0,218366.0,327004.0
366353.0,497976.0,218305.0,326979.0
366387.0,497982.0,218229.0,326911.0
366389.0,498070.0,218186.0,326854.0
366415.0,498065.0,218098.0,326791.0
366389.0,498085.0,218037.0,326748.0
366394.0,498058.0,218008.0,326698.0
366449.0,498088.0,217870.0,326592.0
366437.0,498118.0,217827.0,326561.0
366449.0,498097.0,217731.0,326510.0
366455.0,498081.0,217674.0,326430.0
366441.0,498090.0,217575.0,326437.0
366512.0,498097.0,217521.0,326434.0
366487.0,498112.0,217474.0,326383.0
366513.0,498050.0,217452.0,326414.0
366448.0,498060.0,217406.0,326405.0
366441.0,497998.0,217344.0,326339.0
366417.0,497969.0,217290.0,326346.0
366372.0,497906.0,217210.0,326293.0
366348.0,497899.0,217182.0,326260.0
366384.0,497787.0,217132.0,326213.0
366364.0,497863.0,217203.0,326180.0
366387.0,497895.0,217224.0,326244.0
366411.0,497898.0,217250.0,326281.0
366435.0,498012.0,217290.0,326289.0
366435.0,498062.0,217340.0,326329.0
366495.0,498099.0,217399.0,326375.0
366512.0,498158.0,217415.0,326388.0
366550.0,498275.0,217419.0,326411.0
366599.0,498315.0,217446.0,326404.0
366649.0,498403.0,217449.0,326460.0
366701.0,498436.0,217471.0,326452.0
366710.0,498459.0,217496.0,326466.0
366736.0,498520.0,217527.0,326469.0
366777.0,498626.0,217512.0,326488.0
366814.0,498657.0,217522.0,326447.0
366844.0,498742.0,217505.0,326466.0
366866.0,498778.0,217537.0,326490.0
366939.0,498836.0,217575.0,326485.0
366983.0,498890.0,217585.0,326505.0
367007.0,498966.0,217593.0,326469.0
367002.0,499021.0,217608.0,326490.0
367080.0,499101.0,217573.0,326518.0
367110.0,499165.0,217572.0,326499.0
367178.0,499157.0,217527.0,326425.0
367186.0,499251.0,217539.0,326459.0
367269.0,499329.0,217534.0,326439.0
367255.0,499369.0,217493.0,326358.0
367299.0,499425.0,217487.0,326326.0
367295.0,499412.0,217445.0,326276.0
367314.0,499423.0,217398.0,326179.0
367331.0,499471.0,217329.0,326108.0
367356.0,499535.0,217285.0,326048.0
367341.0,499553.0,217249.0,326018.0
367360.0,499609.0,217176.0,325916.0
367389.0,499681.0,217115.0,325839.0
367431.0,499679.0,217046.0,325748.0
367454.0,499721.0,216994.0,325712.0
367466.0,499785.0,216942.0,325663.0
367516.0,499865.0,216896.0,325597.0
367527.0,499918.0,216852.0,325499.0
367600.0,499937.0,216805.0,325473.0
367598.0,500024.0,216796.0,325473.0
367616.0,500084.0,216784.0,325445.0
367684.0,500121.0,216734.0,325403.0
367733.0,500209.0,216705.0,325363.0
367793.0,500288.0,216657.0,325278.0
367826.0,500384.0,216634.0,325249.0
367839.0,500463.0,216608.0,325192.0
367884.0,500495.0,216558.0,325176.0
367931.0,500536.0,216529.0,325120.0
367978.0,500599.0,216528.0,325114.0
368042.0,500653.0,216512.0,325102.0
368043.0,500718.0,216494.0,325088.0
368080.0,500820.0,216553.0,325121.0
368110.0,500865.0,216515.0,325117.0
368136.0,500930.0,216555.0,325172.0
368220.0,500976.0,216646.0,325168.0
368253.0,501014.0,216684.0,325309.0
368294.0,501143.0,216792.0,325335.0
368334.0,501181.0,216844.0,325419.0
368380.0,501266.0,216895.0,325494.0
368428.0,501239.0,216931.0,325518.0
368491.0,501323.0,216954.0,325560.0
368487.0,501367.0,216989.0,325560.0
368515.0,501415.0,216927.0,325482.0
368541.0,501428.0,216872.0,325483.0
368537.0,501516.0,216834.0,325412.0
368562.0,501499.0,216805.0,325392.0
368588.0,501517.0,216757.0,325348.0
368674.0,501554.0,216662.0,325299.0
368666.0,501632.0,216649.0,325267.0
368637.0,501601.0,216627.0,325246.0
368654.0,501583.0,216577.0,325226.0
368685.0,501645.0,216534.0,325147.0
368726.0,501741.0,216489.0,325081.0
368722.0,501690.0,216423.0,325070.0
368719.0,501723.0,216379.0,325026.0
368734.0,501793.0,216355.0,325024.0
368730.0,501715.0,216288.0,324962.0
368732.0,501729.0,216259.0,324946.0
368762.0,501743.0,216219.0,324888.0
368801.0,501778.0,216162.0,324824.0
368783.0,501704.0,216062.0,324790.0
368769.0,501757.0,216039.0,324717.0
368815.0,501741.0,215976.0,324716.0
368784.0,501712.0,215923.0,324648.0
368791.0,501712.0,215891.0,324694.0
368812.0,501759.0,215856.0,324617.0
368809.0,501722.0,215853.0,324631.0
368826.0,501719.0,215788.0,324565.0
368807.0,501743.0,215709.0,324507.0
368838.0,501744.0,215661.0,324426.0
368803.0,501637.0,215587.0,324389.0
368825.0,501774.0,215570.0,324339.0
368804.0,501759.0,215537.0,324350.0
368816.0,501774.0,215556.0,324377.0
368845.0,501793.0,215577.0,324358.0
368898.0,501791.0,215631.0,324435.0
368924.0,501863.0,215669.0,324444.0
368959.0,501895.0,215683.0,324430.0
368912.0,501888.0,215689.0,324450.0
368952.0,502030.0,215715.0,324460.0
368982.0,502028.0,215709.0,324467.0
369022.0,502088.0,215729.0,324498.0
369038.0,502088.0,215735.0,324519.0
369092.0,502164.0,215790.0,324518.0
369081.0,502121.0,215832.0,324536.0
369056.0,502110.0,215830.0,324563.0
369088.0,502129.0,215849.0,324569.0
369099.0,502105.0,215867.0,324558.0
369096.0,502023.0,215864.0,324528.0
369026.0,501977.0,215854.0,324497.0
369052.0,501973.0,215872.0,324449.0
369052.0,501934.0,215853.0,324447.0
368986.0,501865.0,215833.0,324410.0
369001.0,501875.0,215802.0,324438.0
369003.0,501888.0,215797.0,324383.0
369020.0,501823.0,215798.0,324375.0
368949.0,501839.0,215806.0,324409.0
368984.0,501822.0,215818.0,324350.0
368949.0,501851.0,215777.0,324397.0
368962.0,501844.0,215834.0,324425.0
368921.0,501851.0,215843.0,324378.0
368981.0,501825.0,215904.0,324458.0
368968.0,501805.0,215919.0,324445.0
368981.0,501845.0,215967.0,324432.0
368977.0,501838.0,215996.0,324486.0
368964.0,501751.0,216039.0,324506.0
368975.0,501796.0,216037.0,324508.0
368963.0,501832.0,216097.0,324540.0
368967.0,501806.0,216122.0,324515.0
369005.0,501788.0,216132.0,324532.0
368978.0,501754.0,216136.0,324569.0
368982.0,501745.0,216152.0,324528.0
368965.0,501749.0,216215.0,324552.0
368991.0,501767.0,216233.0,324536.0
369016.0,501765.0,216260.0,324585.0
368961.0,501706.0,216335.0,324650.0
368939.0,501768.0,216355.0,324664.0
368994.0,501739.0,216457.0,324704.0
368962.0,501755.0,216451.0,324697.0
369002.0,501757.0,216537.0,324751.0
368998.0,501743.0,216560.0,324760.0
368988.0,501734.0,216622.0,324722.0
368994.0,501756.0,216699.0,324768.0
369009.0,501813.0,216752.0,324870.0
369027.0,501778.0,216826.0,324855.0
369025.0,501811.0,216942.0,324967.0
369060.0,501834.0,217043.0,325005.0
369098.0,501814.0,217152.0,325079.0
369065.0,501874.0,217278.0,325161.0
369094.0,501927.0,217382.0,325186.0
369146.0,501944.0,217561.0,325357.0
369151.0,501967.0,217737.0,325407.0
369177.0,502048.0,217811.0,325497.0
369157.0,502087.0,217901.0,325593.0
369224.0,502108.0,218040.0,325660.0
369259.0,502130.0,218187.0,325776.0
369339.0,502133.0,218266.0,325801.0
369317.0,502286.0,218316.0,325883.0
369345.0,502277.0,218392.0,325916.0
369360.0,502311.0,218486.0,326000.0
369408.0,502365.0,218528.0,326012.0
369425.0,502450.0,218595.0,326035.0
369437.0,502429.0,218581.0,326045.0
369484.0,502531.0,218561.0,326037.0
369453.0,502471.0,218598.0,326028.0
369491.0,502536.0,218574.0,326048.0
369537.0,502468.0,218577.0,326019.0
369546.0,502523.0,218544.0,325949.0
369568.0,502540.0,218552.0,325949.0
369602.0,502613.0,218561.0,325999.0
369614.0,502620.0,218553.0,325962.0
369663.0,502651.0,218539.0,325933.0
369662.0,502638.0,218557.0,325900.0
369691.0,502693.0,218531.0,325921.0
369672.0,502756.0,218510.0,325933.0
369760.0,502796.0,218488.0,325896.0
369728.0,502749.0,218420.0,325845.0
369741.0,502807.0,218370.0,325768.0
369756.0,502807.0,218392.0,325797.0
369791.0,502808.0,218322.0,325746.0
369755.0,502853.0,218317.0,325706.0
369828.0,502858.0,218331.0,325685.0
369809.0,502859.0,218323.0,325682.0
369791.0,502872.0,218325.0,325700.0
369812.0,502801.0,218315.0,325698.0
369809.0,502806.0,218294.0,325663.0
369786.0,502820.0,218318.0,325645.0
369805.0,502816.0,218302.0,325602.0
369811.0,502807.0,218260.0,325588.0
369762.0,502779.0,218243.0,325539.0
369765.0,502742.0,218185.0,325553.0
369784.0,502744.0,218169.0,325498.0
369781.0,502764.0,218153.0,325550.0
369798.0,502811.0,218160.0,325486.0
369759.0,502804.0,218162.0,325539.0
369791.0,502806.0,218219.0,325597.0
369837.0,502850.0,218219.0,325630.0
369891.0,502866.0,218290.0,325651.0
369866.0,502940.0,218359.0,325764.0
369886.0,502980.0,218456.0,325806.0
369934.0,503034.0,218540.0,325922.0
369958.0,503072.0,218633.0,325973.0
369971.0,503084.0,218782.0,326115.0
370000.0,503188.0,218841.0,326210.0
370119.0,503246.0,219144.0,326431.0
370146.0,503344.0,219278.0,326565.0
370126.0,503416.0,219444.0,326701.0
370257.0,503463.0,219567.0,326821.0
370232.0,503530.0,219684.0,326952.0
370254.0,503588.0,219773.0,326972.0
370315.0,503641.0,219882.0,327053.0
370340.0,503680.0,219908.0,327108.0
370398.0,503751.0,220024.0,327120.0
370441.0,503837.0,220030.0,327182.0
370488.0,503834.0,220024.0,327167.0
370468.0,503918.0,220022.0,327152.0
370514.0,503917.0,219976.0,327107.0
370530.0,503983.0,219938.0,327077.0
370597.0,504014.0,219938.0,327074.0
370589.0,504100.0,219889.0,327070.0
370682.0,504085.0,219834.0,326999.0
